# time(s), 	 	 acceleration(g)
0.000000000000000000e+00 6.311904000000000181e+00
2.000277970813059281e-05 6.553480999999999668e+00
4.000555941626118562e-05 6.772670999999999886e+00
6.000833912439177504e-05 7.043835999999999764e+00
8.001111883252237124e-05 7.292486000000000246e+00
1.000138985406529674e-04 7.563585999999999920e+00
1.200166782487835501e-04 7.881664999999999921e+00
1.400194579569141598e-04 8.218626000000000431e+00
1.600222376650447425e-04 8.608470999999999762e+00
1.800250173731753251e-04 8.983456000000000330e+00
2.000277970813059349e-04 9.415542999999999552e+00
2.200305767894365175e-04 9.828682000000000585e+00
2.400333564975671002e-04 1.030365899999999968e+01
2.600361362056977099e-04 1.082185199999999980e+01
2.800389159138283197e-04 1.139175999999999966e+01
3.000416956219588752e-04 1.202765800000000063e+01
3.200444753300894850e-04 1.275446400000000047e+01
3.400472550382200947e-04 1.352779499999999935e+01
3.600500347463506503e-04 1.446853499999999926e+01
3.800528144544812600e-04 1.544535300000000078e+01
4.000555941626118698e-04 1.659496700000000047e+01
4.200583738707424253e-04 1.796389999999999887e+01
4.400611535788730351e-04 1.931933700000000087e+01
4.600639332870036448e-04 2.106358099999999922e+01
4.800667129951342003e-04 2.319033699999999953e+01
5.000694927032648101e-04 2.563763799999999904e+01
5.200722724113954198e-04 2.874815399999999954e+01
5.400750521195260296e-04 3.292918699999999887e+01
5.600778318276566393e-04 3.887418900000000122e+01
5.800806115357871407e-04 4.798933900000000108e+01
6.000833912439177504e-04 6.363244199999999751e+01
6.200861709520483602e-04 8.845740000000000691e+01
6.400889506601789699e-04 1.266828789999999998e+02
6.600917303683095797e-04 1.802314360000000022e+02
6.800945100764401894e-04 2.473514940000000024e+02
7.000972897845707992e-04 3.252495769999999879e+02
7.201000694927013005e-04 4.032928130000000237e+02
7.401028492008319103e-04 4.674842990000000214e+02
7.601056289089625200e-04 5.046804670000000215e+02
7.801084086170931298e-04 5.076114400000000160e+02
8.001111883252237395e-04 4.806798420000000078e+02
8.201139680333543493e-04 4.371816600000000221e+02
8.401167477414848506e-04 3.867742470000000026e+02
8.601195274496154604e-04 3.378216790000000174e+02
8.801223071577460701e-04 2.896106469999999717e+02
9.001250868658766799e-04 2.468519890000000032e+02
9.201278665740072896e-04 2.005165979999999877e+02
9.401306462821378994e-04 1.485378670000000056e+02
9.601334259902684007e-04 9.558069500000000573e+01
9.801362056983990104e-04 5.113664800000000099e+01
1.000138985406529620e-03 1.643962600000000052e+01
1.020141765114660230e-03 -2.962091000000000030e+00
1.040144544822790840e-03 -8.668241999999999337e+00
1.060147324530921449e-03 -3.756510000000000016e+00
1.080150104239052059e-03 1.309200899999999912e+01
1.100152883947182669e-03 3.652259699999999754e+01
1.120155663655313279e-03 5.761664799999999786e+01
1.140158443363443888e-03 7.344844299999999748e+01
1.160161223071574281e-03 6.601809900000000653e+01
1.180164002779704891e-03 5.377173299999999756e+01
1.200166782487835501e-03 2.495865399999999923e+01
1.220169562195966111e-03 -8.128895999999999233e+00
1.240172341904096720e-03 -2.541573100000000096e+01
1.260175121612227330e-03 -4.752222299999999677e+01
1.280177901320357940e-03 -4.449670900000000273e+01
1.300180681028488550e-03 -2.646029199999999904e+01
1.320183460736619159e-03 -8.010605999999999227e+00
1.340186240444749769e-03 1.293511099999999914e+01
1.360189020152880379e-03 2.600970299999999824e+01
1.380191799861010989e-03 3.001735599999999948e+01
1.400194579569141598e-03 2.919308900000000051e+01
1.420197359277271991e-03 5.299463000000000257e+00
1.440200138985402601e-03 1.585815999999999892e+00
1.460202918693533211e-03 -2.960274000000000072e+00
1.480205698401663821e-03 -5.306804999999999772e+00
1.500208478109794430e-03 6.324752000000000152e+00
1.520211257817925040e-03 1.058410399999999996e+01
1.540214037526055650e-03 2.044156800000000018e+01
1.560216817234186260e-03 2.361054899999999890e+01
1.580219596942316869e-03 1.611934000000000111e+01
1.600222376650447479e-03 1.162282399999999960e+01
1.620225156358578089e-03 -2.657639000000000085e+00
1.640227936066708699e-03 4.382666000000000395e+00
1.660230715774839308e-03 1.241309000000000040e+01
1.680233495482969701e-03 -2.579772999999999872e+00
1.700236275191100311e-03 4.671610000000000262e+00
1.720239054899230921e-03 1.145942999999999934e+00
1.740241834607361530e-03 -1.015935900000000025e+01
1.760244614315492140e-03 -1.670113200000000120e+01
1.780247394023622750e-03 -2.726016100000000009e+01
1.800250173731753360e-03 -3.436198000000000263e+01
1.820252953439883969e-03 -2.978396499999999847e+01
1.840255733148014579e-03 -1.504851000000000028e+01
1.860258512856145189e-03 1.446436999999999973e+00
1.880261292564275799e-03 1.657121799999999823e+01
1.900264072272406408e-03 3.601128299999999882e+01
1.920266851980536801e-03 4.367956999999999823e+01
1.940269631688667411e-03 4.119891700000000156e+01
1.960272411396798021e-03 2.986616799999999827e+01
1.980275191104928847e-03 1.556351300000000037e+01
2.000277970813059240e-03 -7.565152999999999572e+00
2.020280750521190067e-03 -1.426018999999999970e+01
2.040283530229320460e-03 -1.716962099999999936e+01
2.060286309937450853e-03 -2.253867999999999938e+01
2.080289089645581679e-03 -1.591145000000000032e+01
2.100291869353712072e-03 -8.386889000000000038e+00
2.120294649061842899e-03 -4.121762000000000370e+00
2.140297428769973292e-03 -4.260233000000000381e+00
2.160300208478104118e-03 -1.395460000000000034e-01
2.180302988186234511e-03 -3.670209999999999972e+00
2.200305767894365338e-03 -1.254021499999999989e+01
2.220308547602495731e-03 -1.534549999999999947e+01
2.240311327310626557e-03 -1.331529699999999927e+01
2.260314107018756950e-03 -6.807266000000000261e+00
2.280316886726887777e-03 -1.220377999999999963e+00
2.300319666435018170e-03 3.497923999999999811e+00
2.320322446143148563e-03 1.134400199999999970e+01
2.340325225851279389e-03 1.047132900000000078e+01
2.360328005559409782e-03 1.509476500000000065e+01
2.380330785267540609e-03 1.098238399999999970e+01
2.400333564975671002e-03 4.263921999999999990e+00
2.420336344683801828e-03 4.476753000000000426e+00
2.440339124391932221e-03 7.445945000000000036e+00
2.460341904100063048e-03 3.258099000000000078e+00
2.480344683808193441e-03 -3.984849999999999781e+00
2.500347463516324267e-03 -1.079649000000000036e+01
2.520350243224454660e-03 -1.671449900000000000e+01
2.540353022932585487e-03 -1.552426600000000079e+01
2.560355802640715880e-03 -1.867202800000000096e+01
2.580358582348846273e-03 -1.084619400000000056e+01
2.600361362056977099e-03 -1.123435199999999945e+01
2.620364141765107492e-03 -4.997030999999999779e+00
2.640366921473238319e-03 -3.735031999999999908e+00
2.660369701181368712e-03 -4.352049000000000056e+00
2.680372480889499538e-03 -1.828310000000000102e+00
2.700375260597629931e-03 -7.574106999999999701e+00
2.720378040305760758e-03 -1.705089000000000077e+00
2.740380820013891151e-03 1.458377000000000034e+00
2.760383599722021977e-03 5.801693000000000211e+00
2.780386379430152370e-03 1.121039900000000067e+01
2.800389159138283197e-03 1.651067799999999863e+01
2.820391938846413590e-03 1.230745300000000064e+01
2.840394718554543983e-03 3.645996999999999932e+00
2.860397498262674809e-03 -1.520418999999999965e+00
2.880400277970805202e-03 -4.607390000000000096e-01
2.900403057678936029e-03 -8.555272999999999683e+00
2.920405837387066422e-03 -9.868468000000000018e+00
2.940408617095197248e-03 -1.432475400000000043e+01
2.960411396803327641e-03 -1.113267300000000048e+01
2.980414176511458468e-03 -8.263472999999999402e+00
3.000416956219588861e-03 -6.248517999999999795e+00
3.020419735927719687e-03 -1.087883300000000020e+01
3.040422515635850080e-03 -1.932194199999999995e+01
3.060425295343980907e-03 -1.478688299999999956e+01
3.080428075052111300e-03 -1.105350999999999928e+01
3.100430854760241692e-03 -6.227754000000000012e+00
3.120433634468372519e-03 2.302888999999999964e+00
3.140436414176502912e-03 1.086759799999999920e+01
3.160439193884633739e-03 1.476779699999999984e+01
3.180441973592764131e-03 1.248245499999999986e+01
3.200444753300894958e-03 1.042921699999999952e+01
3.220447533009025351e-03 4.701848000000000027e+00
3.240450312717156178e-03 -4.105151000000000217e+00
3.260453092425286570e-03 -3.827821999999999836e+00
3.280455872133417397e-03 -3.835154000000000174e+00
3.300458651841547790e-03 -6.606893000000000349e+00
3.320461431549678617e-03 5.423580000000000068e-01
3.340464211257809009e-03 5.423981999999999637e+00
3.360466990965939402e-03 -1.952439999999999953e+00
3.380469770674070229e-03 -7.728928999999999938e+00
3.400472550382200622e-03 -1.067184100000000058e+01
3.420475330090331448e-03 -1.801147200000000126e+01
3.440478109798461841e-03 -2.077295900000000017e+01
3.460480889506592668e-03 -1.417609599999999936e+01
3.480483669214723061e-03 -1.392154200000000053e+01
3.500486448922853887e-03 -9.185007000000000588e+00
3.520489228630984280e-03 6.441743999999999915e+00
3.540492008339115107e-03 1.112922400000000067e+01
3.560494788047245500e-03 1.126529400000000081e+01
3.580497567755376326e-03 1.227779999999999916e+01
3.600500347463506719e-03 3.786802999999999919e+00
3.620503127171637112e-03 -2.864434999999999842e+00
3.640505906879767939e-03 -4.077119999999999855e+00
3.660508686587898332e-03 -2.307440000000000158e+00
3.680511466296029158e-03 -1.282475999999999949e+00
3.700514246004159551e-03 -5.947399999999999909e-02
3.720517025712290378e-03 1.955025999999999931e+00
3.740519805420420771e-03 -2.242553000000000019e+00
3.760522585128551597e-03 2.442000000000000004e-01
3.780525364836681990e-03 -9.963859999999999939e-01
3.800528144544812817e-03 -3.533815999999999846e+00
3.820530924252943210e-03 -5.569015000000000271e+00
3.840533703961073603e-03 -9.798000000000000043e+00
3.860536483669204429e-03 -1.231940200000000019e+01
3.880539263377334822e-03 -1.068092500000000022e+01
3.900542043085465649e-03 -1.167344600000000021e+01
3.920544822793596042e-03 -1.155437700000000056e+01
3.940547602501726435e-03 -4.137595000000000134e+00
3.960550382209857695e-03 3.118266000000000204e+00
3.980553161917988088e-03 6.814912999999999776e+00
4.000555941626118481e-03 1.531304699999999919e+01
4.020558721334248874e-03 1.210273300000000063e+01
4.040561501042380134e-03 4.954780000000000406e+00
4.060564280750510527e-03 5.777555000000000440e+00
4.080567060458640920e-03 1.286165000000000003e+00
4.100569840166771313e-03 -3.877410000000000023e-01
4.120572619874901706e-03 2.480930000000000080e-01
4.140575399583032966e-03 -5.981506000000000434e+00
4.160578179291163359e-03 -8.096387000000000000e+00
4.180580958999293752e-03 -7.350698999999999650e+00
4.200583738707424145e-03 -5.953409999999999869e+00
4.220586518415555405e-03 -5.477523999999999837e+00
4.240589298123685798e-03 -5.026165999999999912e+00
4.260592077831816191e-03 -6.468033000000000143e+00
4.280594857539946584e-03 -6.012717000000000311e+00
4.300597637248077844e-03 -1.813774999999999915e+00
4.320600416956208237e-03 -5.674900000000000083e-02
4.340603196664338630e-03 -3.006669000000000036e+00
4.360605976372469023e-03 -1.446719999999999950e-01
4.380608756080599415e-03 2.475554999999999950e+00
4.400611535788730676e-03 2.329622000000000082e+00
4.420614315496861069e-03 8.090797999999999490e+00
4.440617095204991462e-03 7.797699999999999854e+00
4.460619874913121854e-03 1.508080000000000087e+00
4.480622654621253115e-03 -6.047900000000000498e-01
4.500625434329383508e-03 -4.649947000000000052e+00
4.520628214037513901e-03 -7.179395999999999667e+00
4.540630993745644294e-03 -2.697090000000000209e+00
4.560633773453775554e-03 1.825769999999999893e+00
4.580636553161905947e-03 1.775546999999999986e+00
4.600639332870036340e-03 3.952720999999999929e+00
4.620642112578166733e-03 2.117634999999999934e+00
4.640644892286297125e-03 -2.462197000000000191e+00
4.660647671994428386e-03 -3.702459000000000167e+00
4.680650451702558779e-03 -1.010965500000000006e+01
4.700653231410689172e-03 -1.763136099999999828e+01
4.720656011118819564e-03 -1.498083199999999948e+01
4.740658790826950825e-03 -6.085261000000000031e+00
4.760661570535081218e-03 4.192935000000000301e+00
4.780664350243211611e-03 1.076844900000000038e+01
4.800667129951342003e-03 1.171476999999999968e+01
4.820669909659473264e-03 9.511640999999999124e+00
4.840672689367603657e-03 5.418402000000000385e+00
4.860675469075734050e-03 1.451238999999999946e+00
4.880678248783864442e-03 -6.812846000000000402e+00
4.900681028491994835e-03 -8.635213999999999501e+00
4.920683808200126096e-03 -7.966092999999999869e+00
4.940686587908256489e-03 -5.255607999999999613e+00
4.960689367616386881e-03 1.516710000000000003e+00
4.980692147324517274e-03 3.548471000000000153e+00
5.000694927032648535e-03 -1.820329000000000086e+00
5.020697706740778928e-03 -1.856665999999999928e+00
5.040700486448909320e-03 -2.522867000000000193e+00
5.060703266157039713e-03 -2.431830000000000158e+00
5.080706045865170974e-03 9.339549999999999796e-01
5.100708825573301367e-03 8.405700000000000671e-02
5.120711605281431759e-03 -3.595718999999999888e+00
5.140714384989562152e-03 -6.052298000000000400e+00
5.160717164697692545e-03 -5.271635999999999989e+00
5.180719944405823806e-03 -2.735762999999999945e+00
5.200722724113954198e-03 6.173680000000000279e-01
5.220725503822084591e-03 1.374346999999999985e+00
5.240728283530214984e-03 -2.387316999999999911e+00
5.260731063238346245e-03 -2.036080000000000112e+00
5.280733842946476637e-03 3.259656000000000109e+00
5.300736622654607030e-03 3.302741999999999845e+00
5.320739402362737423e-03 3.166932000000000080e+00
5.340742182070868684e-03 2.845599999999999796e-01
5.360744961778999076e-03 -3.884857999999999922e+00
5.380747741487129469e-03 -3.650742999999999849e+00
5.400750521195259862e-03 -2.079489999999999839e+00
5.420753300903390255e-03 -4.371385000000000076e+00
5.440756080611521515e-03 -4.485393000000000185e+00
5.460758860319651908e-03 -4.474815999999999683e+00
5.480761640027782301e-03 -2.679571000000000147e+00
5.500764419735912694e-03 1.735965999999999898e+00
5.520767199444043954e-03 1.730774999999999952e+00
5.540769979152174347e-03 -1.487065999999999999e+00
5.560772758860304740e-03 -4.122606000000000215e+00
5.580775538568435133e-03 -4.870630000000000237e+00
5.600778318276566393e-03 -3.080445999999999795e+00
5.620781097984696786e-03 -1.836689999999999989e-01
5.640783877692827179e-03 1.767112000000000016e+00
5.660786657400957572e-03 -5.964840000000000142e-01
5.680789437109087965e-03 -2.673211999999999922e+00
5.700792216817219225e-03 -1.166585999999999901e+00
5.720794996525349618e-03 -7.860859999999999514e-01
5.740797776233480011e-03 4.731230000000000158e-01
5.760800555941610404e-03 9.139049999999999674e-01
5.780803335649741664e-03 -1.395445000000000046e+00
5.800806115357872057e-03 -1.856211999999999973e+00
5.820808895066002450e-03 -1.611529999999999907e-01
5.840811674774132843e-03 9.663990000000000080e-01
5.860814454482264103e-03 1.617480999999999947e+00
5.880817234190394496e-03 -1.841288000000000036e+00
5.900820013898524889e-03 -6.251178999999999597e+00
5.920822793606655282e-03 -7.469184000000000268e+00
5.940825573314785675e-03 -7.567747999999999919e+00
5.960828353022916935e-03 -5.942962999999999774e+00
5.980831132731047328e-03 -2.752438999999999858e+00
6.000833912439177721e-03 -2.355522000000000116e+00
6.020836692147308114e-03 -9.810079999999999911e-01
6.040839471855439374e-03 3.235259000000000107e+00
6.060842251563569767e-03 6.314370000000000260e+00
6.080845031271700160e-03 5.691708000000000212e+00
6.100847810979830553e-03 1.231918999999999986e+00
6.120850590687961813e-03 -3.556526999999999994e+00
6.140853370396092206e-03 -4.903398000000000145e+00
6.160856150104222599e-03 -2.277851000000000070e+00
6.180858929812352992e-03 -4.802699999999999747e-01
6.200861709520483385e-03 -1.813970000000000082e+00
6.220864489228614645e-03 -2.594179000000000013e+00
6.240867268936745038e-03 -3.237538999999999945e+00
6.260870048644875431e-03 -2.776837000000000000e+00
6.280872828353005824e-03 -2.410299999999999943e-01
6.300875608061137084e-03 -1.220259999999999956e-01
6.320878387769267477e-03 -3.829638000000000098e+00
6.340881167477397870e-03 -5.762316000000000216e+00
6.360883947185528263e-03 -4.418752999999999709e+00
6.380886726893659523e-03 -1.205583999999999989e+00
6.400889506601789916e-03 2.890315999999999885e+00
6.420892286309920309e-03 4.755444999999999922e+00
6.440895066018050702e-03 2.477695999999999898e+00
6.460897845726181095e-03 -7.396260000000000057e-01
6.480900625434312355e-03 -2.280771000000000104e+00
6.500903405142442748e-03 -2.691250000000000142e+00
6.520906184850573141e-03 -1.884373000000000076e+00
6.540908964558703534e-03 -1.789832000000000090e+00
6.560911744266834794e-03 -2.741668000000000216e+00
6.580914523974965187e-03 -1.342250000000000110e-01
6.600917303683095580e-03 2.724981999999999793e+00
6.620920083391225973e-03 1.852114000000000038e+00
6.640922863099357233e-03 -9.292280000000000539e-01
6.660925642807487626e-03 -4.973087999999999731e+00
6.680928422515618019e-03 -6.930291999999999675e+00
6.700931202223748412e-03 -4.082830000000000403e+00
6.720933981931878805e-03 -8.400069999999999482e-01
6.740936761640010065e-03 1.022397000000000000e+00
6.760939541348140458e-03 1.414641999999999955e+00
6.780942321056270851e-03 -5.974570000000000158e-01
6.800945100764401244e-03 -2.702345999999999915e+00
6.820947880472532504e-03 -2.421707000000000054e+00
6.840950660180662897e-03 -2.354289000000000076e+00
6.860953439888793290e-03 -2.490164000000000044e+00
6.880956219596923683e-03 -6.109539999999999971e-01
6.900958999305054943e-03 2.831969999999999765e-01
6.920961779013185336e-03 8.377269999999999994e-01
6.940964558721315729e-03 2.517018000000000200e+00
6.960967338429446122e-03 1.372789999999999955e+00
6.980970118137576515e-03 -2.630060999999999982e+00
7.000972897845707775e-03 -4.763435999999999559e+00
7.020975677553838168e-03 -3.945072999999999830e+00
7.040978457261968561e-03 -2.940872999999999848e+00
7.060981236970098954e-03 -2.917200000000000001e-02
7.080984016678230214e-03 2.261880000000000113e+00
7.100986796386360607e-03 -4.331700000000000134e-02
7.120989576094491000e-03 -1.521522000000000041e+00
7.140992355802621393e-03 -1.077690000000000037e+00
7.160995135510752653e-03 -3.013093000000000021e+00
7.180997915218883046e-03 -4.665585000000000093e+00
7.201000694927013439e-03 -4.550605000000000011e+00
7.221003474635143832e-03 -4.153167999999999971e+00
7.241006254343274225e-03 -1.935505000000000031e+00
7.261009034051405485e-03 1.584128999999999898e+00
7.281011813759535878e-03 2.643028999999999851e+00
7.301014593467666271e-03 1.551231000000000027e+00
7.321017373175796664e-03 2.465360000000000051e-01
7.341020152883927924e-03 -1.485573999999999950e+00
7.361022932592058317e-03 -1.914220999999999950e+00
7.381025712300188710e-03 -5.508030000000000426e-01
7.401028492008319103e-03 -6.041410000000000391e-01
7.421031271716450363e-03 -2.505088000000000203e+00
7.441034051424580756e-03 -3.134367999999999821e+00
7.461036831132711149e-03 -2.232299999999999951e+00
7.481039610840841542e-03 -1.330947000000000102e+00
7.501042390548971935e-03 -4.435439999999999938e-01
7.521045170257103195e-03 -9.720529999999999449e-01
7.541047949965233588e-03 -1.939462999999999937e+00
7.561050729673363981e-03 -2.073261000000000021e+00
7.581053509381494374e-03 -2.310878999999999905e+00
7.601056289089625634e-03 -1.961070000000000091e+00
7.621059068797756027e-03 -2.059829000000000132e+00
7.641061848505886420e-03 -2.040233000000000185e+00
7.661064628214016813e-03 -8.119110000000000493e-01
7.681067407922147205e-03 5.996540000000000203e-01
7.701070187630278466e-03 8.324709999999999610e-01
7.721072967338408859e-03 3.868229999999999724e-01
7.741075747046539252e-03 -1.057055999999999996e+00
7.761078526754669644e-03 -2.449543999999999944e+00
7.781081306462800905e-03 -2.393610999999999933e+00
7.801084086170931298e-03 -1.493036000000000030e+00
7.821086865879062558e-03 -5.181000000000000050e-01
7.841089645587192083e-03 3.979829999999999757e-01
7.861092425295323344e-03 -1.410379999999999967e-01
