# time(s), 	 	 acceleration(g)
0.000000000000000000e+00 6.256230999999999653e+00
2.000277970813059281e-05 6.491317999999999699e+00
4.000555941626118562e-05 6.734321999999999697e+00
6.000833912439177504e-05 7.002049000000000412e+00
8.001111883252237124e-05 7.267958000000000141e+00
1.000138985406529674e-04 7.562158000000000158e+00
1.200166782487835501e-04 7.902493999999999907e+00
1.400194579569141598e-04 8.228813999999999851e+00
1.600222376650447425e-04 8.588485999999999621e+00
1.800250173731753251e-04 8.957826000000000732e+00
2.000277970813059349e-04 9.348124999999999574e+00
2.200305767894365175e-04 9.766455000000000553e+00
2.400333564975671002e-04 1.025473399999999913e+01
2.600361362056977099e-04 1.076501000000000019e+01
2.800389159138283197e-04 1.135263199999999983e+01
3.000416956219588752e-04 1.199488999999999983e+01
3.200444753300894850e-04 1.271624500000000069e+01
3.400472550382200947e-04 1.353499700000000061e+01
3.600500347463506503e-04 1.438943699999999914e+01
3.800528144544812600e-04 1.550647700000000029e+01
4.000555941626118698e-04 1.660697100000000148e+01
4.200583738707424253e-04 1.774587800000000115e+01
4.400611535788730351e-04 1.928896999999999906e+01
4.600639332870036448e-04 2.095418000000000092e+01
4.800667129951342003e-04 2.305063399999999874e+01
5.000694927032648101e-04 2.548048000000000002e+01
5.200722724113954198e-04 2.871811200000000142e+01
5.400750521195260296e-04 3.289343399999999917e+01
5.600778318276566393e-04 3.904834699999999970e+01
5.800806115357871407e-04 4.851590199999999697e+01
6.000833912439177504e-04 6.432648000000000366e+01
6.200861709520483602e-04 8.959948599999999885e+01
6.400889506601789699e-04 1.278520240000000001e+02
6.600917303683095797e-04 1.808232109999999864e+02
6.800945100764401894e-04 2.475187090000000012e+02
7.000972897845707992e-04 3.233128770000000145e+02
7.201000694927013005e-04 3.990992580000000203e+02
7.401028492008319103e-04 4.611245359999999778e+02
7.601056289089625200e-04 4.972353289999999788e+02
7.801084086170931298e-04 5.012335729999999785e+02
8.001111883252237395e-04 4.757457880000000046e+02
8.201139680333543493e-04 4.344386020000000030e+02
8.401167477414848506e-04 3.852346590000000219e+02
8.601195274496154604e-04 3.368326620000000275e+02
8.801223071577460701e-04 2.904260889999999904e+02
9.001250868658766799e-04 2.482268280000000118e+02
9.201278665740072896e-04 2.016303279999999916e+02
9.401306462821378994e-04 1.497053239999999903e+02
9.601334259902684007e-04 9.664855099999999766e+01
9.801362056983990104e-04 5.290502899999999897e+01
1.000138985406529620e-03 1.791030299999999897e+01
1.020141765114660230e-03 -2.232235000000000191e+00
1.040144544822790840e-03 -8.634045999999999665e+00
1.060147324530921449e-03 -1.744930000000000092e+00
1.080150104239052059e-03 1.386073299999999975e+01
1.100152883947182669e-03 3.947939600000000127e+01
1.120155663655313279e-03 5.790539799999999815e+01
1.140158443363443888e-03 6.982758599999999660e+01
1.160161223071574281e-03 6.757832200000000000e+01
1.180164002779704891e-03 4.639985300000000024e+01
1.200166782487835501e-03 1.781368499999999955e+01
1.220169562195966111e-03 -1.169764900000000019e+01
1.240172341904096720e-03 -3.373217999999999961e+01
1.260175121612227330e-03 -4.272106000000000137e+01
1.280177901320357940e-03 -2.904560899999999890e+01
1.300180681028488550e-03 -1.498595800000000011e+01
1.320183460736619159e-03 1.039203000000000099e+00
1.340186240444749769e-03 2.283903499999999909e+01
1.360189020152880379e-03 3.218213599999999985e+01
1.380191799861010989e-03 2.770716300000000132e+01
1.400194579569141598e-03 1.002782200000000046e+01
1.420197359277271991e-03 -2.769375000000000142e+00
1.440200138985402601e-03 -1.386002900000000082e+01
1.460202918693533211e-03 -1.529962500000000070e+01
1.480205698401663821e-03 -4.515305999999999820e+00
1.500208478109794430e-03 3.718347000000000069e+00
1.520211257817925040e-03 2.010051899999999847e+01
1.540214037526055650e-03 2.870318699999999978e+01
1.560216817234186260e-03 3.044152599999999964e+01
1.580219596942316869e-03 2.699210100000000168e+01
1.600222376650447479e-03 1.210961099999999924e+01
1.620225156358578089e-03 9.714349999999999596e+00
1.640227936066708699e-03 4.945111999999999952e+00
1.660230715774839308e-03 -6.636805999999999983e+00
1.680233495482969701e-03 -1.024288000000000087e+00
1.700236275191100311e-03 -2.639988999999999919e+00
1.720239054899230921e-03 -2.172734000000000165e+00
1.740241834607361530e-03 -6.918677999999999884e+00
1.760244614315492140e-03 -1.973034499999999980e+01
1.780247394023622750e-03 -2.166853700000000060e+01
1.800250173731753360e-03 -3.006668000000000163e+01
1.820252953439883969e-03 -2.124793599999999927e+01
1.840255733148014579e-03 -1.467897499999999944e+01
1.860258512856145189e-03 -3.423830999999999847e+00
1.880261292564275799e-03 1.911455199999999977e+01
1.900264072272406408e-03 2.695784099999999839e+01
1.920266851980536801e-03 3.536604100000000273e+01
1.940269631688667411e-03 3.731850899999999882e+01
1.960272411396798021e-03 2.539949999999999974e+01
1.980275191104928847e-03 1.268490500000000054e+01
2.000277970813059240e-03 1.053932000000000091e+00
2.020280750521190067e-03 -9.022268999999999650e+00
2.040283530229320460e-03 -1.594661900000000010e+01
2.060286309937450853e-03 -1.356511399999999945e+01
2.080289089645581679e-03 -1.287951200000000007e+01
2.100291869353712072e-03 -7.364131000000000427e+00
2.120294649061842899e-03 -5.015393999999999686e+00
2.140297428769973292e-03 1.090389999999999970e-01
2.160300208478104118e-03 -2.195768999999999860e+00
2.180302988186234511e-03 -7.879986999999999853e+00
2.200305767894365338e-03 -1.631797100000000000e+01
2.220308547602495731e-03 -1.953542200000000051e+01
2.240311327310626557e-03 -1.242724499999999921e+01
2.260314107018756950e-03 -8.258347000000000548e+00
2.280316886726887777e-03 -5.843166000000000082e+00
2.300319666435018170e-03 2.269471999999999934e+00
2.320322446143148563e-03 1.071744799999999920e+01
2.340325225851279389e-03 1.396066000000000074e+01
2.360328005559409782e-03 1.678378899999999874e+01
2.380330785267540609e-03 1.648089399999999927e+01
2.400333564975671002e-03 8.818706999999999852e+00
2.420336344683801828e-03 6.625960000000000072e+00
2.440339124391932221e-03 5.276621999999999701e+00
2.460341904100063048e-03 -4.271588000000000385e+00
2.480344683808193441e-03 -7.740218999999999738e+00
2.500347463516324267e-03 -1.352786900000000081e+01
2.520350243224454660e-03 -1.558564900000000009e+01
2.540353022932585487e-03 -1.727480299999999858e+01
2.560355802640715880e-03 -1.111683999999999983e+01
2.580358582348846273e-03 -2.987073000000000089e+00
2.600361362056977099e-03 -3.790057000000000009e+00
2.620364141765107492e-03 -4.969973000000000418e+00
2.640366921473238319e-03 -5.332564999999999777e+00
2.660369701181368712e-03 -8.931165999999999272e+00
2.680372480889499538e-03 -9.517037000000000191e+00
2.700375260597629931e-03 -9.512169999999999348e+00
2.720378040305760758e-03 -8.546122999999999692e+00
2.740380820013891151e-03 -2.945999000000000034e+00
2.760383599722021977e-03 3.673509000000000135e+00
2.780386379430152370e-03 1.914887799999999984e+01
2.800389159138283197e-03 1.830994600000000005e+01
2.820391938846413590e-03 1.271410400000000074e+01
2.840394718554543983e-03 8.088072000000000372e+00
2.860397498262674809e-03 4.595691999999999666e+00
2.880400277970805202e-03 -2.687033000000000005e+00
2.900403057678936029e-03 -6.160401000000000238e+00
2.920405837387066422e-03 -1.370721799999999924e+01
2.940408617095197248e-03 -1.505610199999999921e+01
2.960411396803327641e-03 -1.111710000000000065e+01
2.980414176511458468e-03 -7.868631999999999849e+00
3.000416956219588861e-03 -9.283765999999999963e+00
3.020419735927719687e-03 -1.511781000000000041e+01
3.040422515635850080e-03 -1.291208600000000040e+01
3.060425295343980907e-03 -1.303887600000000013e+01
3.080428075052111300e-03 -1.181581000000000081e+01
3.100430854760241692e-03 -3.182968999999999937e+00
3.120433634468372519e-03 1.914795999999999943e+00
3.140436414176502912e-03 8.131287999999999627e+00
3.160439193884633739e-03 1.043181300000000000e+01
3.180441973592764131e-03 1.133147899999999986e+01
3.200444753300894958e-03 7.051232999999999862e+00
3.220447533009025351e-03 2.745292000000000066e+00
3.240450312717156178e-03 8.427229999999999999e-01
3.260453092425286570e-03 -4.599205000000000432e+00
3.280455872133417397e-03 -5.386161999999999672e+00
3.300458651841547790e-03 -4.691100000000000270e-01
3.320461431549678617e-03 3.333368999999999804e+00
3.340464211257809009e-03 3.851172000000000040e+00
3.360466990965939402e-03 -1.067957000000000045e+00
3.380469770674070229e-03 -4.423359999999999737e+00
3.400472550382200622e-03 -1.406104999999999983e+01
3.420475330090331448e-03 -1.749749800000000022e+01
3.440478109798461841e-03 -1.857450199999999896e+01
3.460480889506592668e-03 -1.762746699999999933e+01
3.480483669214723061e-03 -1.534284000000000070e+01
3.500486448922853887e-03 -7.271341999999999750e+00
3.520489228630984280e-03 2.377768999999999799e+00
3.540492008339115107e-03 6.947023999999999866e+00
3.560494788047245500e-03 1.291908399999999979e+01
3.580497567755376326e-03 9.926598000000000255e+00
3.600500347463506719e-03 5.336707999999999785e+00
3.620503127171637112e-03 2.922810000000000130e-01
3.640505906879767939e-03 -1.511074999999999946e+00
3.660508686587898332e-03 1.156455000000000011e+00
3.680511466296029158e-03 -1.527830000000000021e-01
3.700514246004159551e-03 -5.242176999999999865e+00
3.720517025712290378e-03 -2.100708000000000020e+00
3.740519805420420771e-03 -2.892856000000000094e+00
3.760522585128551597e-03 -2.538440000000000030e+00
3.780525364836681990e-03 -8.023069999999999924e-01
3.800528144544812817e-03 1.554021000000000097e+00
3.820530924252943210e-03 -1.683805999999999914e+00
3.840533703961073603e-03 -4.318696000000000090e+00
3.860536483669204429e-03 -5.726498000000000310e+00
3.880539263377334822e-03 -1.102606300000000061e+01
3.900542043085465649e-03 -1.650770199999999832e+01
3.920544822793596042e-03 -1.500834399999999924e+01
3.940547602501726435e-03 -1.018803899999999985e+01
3.960550382209857695e-03 -5.334252000000000216e+00
3.980553161917988088e-03 6.112828999999999624e+00
4.000555941626118481e-03 1.256343500000000013e+01
4.020558721334248874e-03 1.192604399999999920e+01
4.040561501042380134e-03 1.190579900000000002e+01
4.060564280750510527e-03 7.919234999999999580e+00
4.080567060458640920e-03 3.762341000000000157e+00
4.100569840166771313e-03 1.582635999999999932e+00
4.120572619874901706e-03 -1.608600999999999948e+00
4.140575399583032966e-03 -4.196188000000000251e+00
4.160578179291163359e-03 -7.909316999999999709e+00
4.180580958999293752e-03 -5.730391000000000012e+00
4.200583738707424145e-03 -4.184249000000000329e+00
4.220586518415555405e-03 -5.992017999999999844e+00
4.240589298123685798e-03 -6.426764999999999617e+00
4.260592077831816191e-03 -5.559866000000000419e+00
4.280594857539946584e-03 -4.562933000000000128e+00
4.300597637248077844e-03 -4.858042000000000193e+00
4.320600416956208237e-03 -3.575667999999999846e+00
4.340603196664338630e-03 -3.099848000000000159e+00
4.360605976372469023e-03 -1.173529000000000044e+00
4.380608756080599415e-03 1.764969999999999928e+00
4.400611535788730676e-03 5.018563999999999581e+00
4.420614315496861069e-03 5.590093999999999674e+00
4.440617095204991462e-03 3.999763999999999875e+00
4.460619874913121854e-03 3.659234000000000098e+00
4.480622654621253115e-03 -1.148806999999999912e+00
4.500625434329383508e-03 -3.195297000000000054e+00
4.520628214037513901e-03 -1.753819000000000017e+00
4.540630993745644294e-03 -1.479929000000000050e+00
4.560633773453775554e-03 2.915687000000000140e+00
4.580636553161905947e-03 3.659818000000000016e+00
4.600639332870036340e-03 1.949964999999999948e+00
4.620642112578166733e-03 4.830510000000000081e-01
4.640644892286297125e-03 -3.201655999999999835e+00
4.660647671994428386e-03 -8.228628000000000497e+00
4.680650451702558779e-03 -1.308306400000000025e+01
4.700653231410689172e-03 -1.536795099999999969e+01
4.720656011118819564e-03 -1.043681800000000059e+01
4.740658790826950825e-03 -2.229055999999999926e+00
4.760661570535081218e-03 4.884831000000000145e+00
4.780664350243211611e-03 8.011115999999999460e+00
4.800667129951342003e-03 9.151125999999999650e+00
4.820669909659473264e-03 7.731969000000000314e+00
4.840672689367603657e-03 4.099432000000000187e+00
4.860675469075734050e-03 -4.475020000000000109e-01
4.880678248783864442e-03 -4.693811000000000178e+00
4.900681028491994835e-03 -7.948313999999999879e+00
4.920683808200126096e-03 -7.352904999999999802e+00
4.940686587908256489e-03 -3.033402999999999849e+00
4.960689367616386881e-03 4.913569999999999882e-01
4.980692147324517274e-03 3.362749999999999906e-01
5.000694927032648535e-03 -2.269490000000000118e-01
5.020697706740778928e-03 -4.819570000000000243e-01
5.040700486448909320e-03 -4.288139999999999730e-01
5.060703266157039713e-03 1.914082000000000061e+00
5.080706045865170974e-03 1.693140000000000089e+00
5.100708825573301367e-03 -2.165020000000000000e-01
5.120711605281431759e-03 -4.647871000000000308e+00
5.140714384989562152e-03 -7.820160999999999696e+00
5.160717164697692545e-03 -6.644203000000000081e+00
5.180719944405823806e-03 -6.532726000000000255e+00
5.200722724113954198e-03 -4.705036999999999914e+00
5.220725503822084591e-03 -7.163960000000000328e-01
5.240728283530214984e-03 2.403599999999999834e-02
5.260731063238346245e-03 4.106374999999999886e+00
5.280733842946476637e-03 6.008748999999999896e+00
5.300736622654607030e-03 4.692375000000000185e+00
5.320739402362737423e-03 1.795792000000000055e+00
5.340742182070868684e-03 -1.383375999999999939e+00
5.360744961778999076e-03 -2.580487000000000197e+00
5.380747741487129469e-03 -3.727765000000000217e+00
5.400750521195259862e-03 -4.721453999999999596e+00
5.420753300903390255e-03 -4.847140999999999700e+00
5.440756080611521515e-03 -4.763371000000000244e+00
5.460758860319651908e-03 -3.001802000000000081e+00
5.480761640027782301e-03 2.289509999999999879e-01
5.500764419735912694e-03 1.392320999999999920e+00
5.520767199444043954e-03 5.703249999999999709e-01
5.540769979152174347e-03 -1.955165000000000042e+00
5.560772758860304740e-03 -4.155374000000000123e+00
5.580775538568435133e-03 -3.044043999999999972e+00
5.600778318276566393e-03 -1.220637999999999890e+00
5.620781097984696786e-03 -6.804489999999999705e-01
5.640783877692827179e-03 -7.557180000000000009e-01
5.660786657400957572e-03 -1.842715000000000103e+00
5.680789437109087965e-03 -2.488151999999999919e+00
5.700792216817219225e-03 -2.383099000000000078e+00
5.720794996525349618e-03 -2.126663000000000192e+00
5.740797776233480011e-03 -1.168403000000000080e+00
5.760800555941610404e-03 2.551660000000000039e-01
5.780803335649741664e-03 4.872690000000000077e-01
5.800806115357872057e-03 1.481605999999999979e+00
5.820808895066002450e-03 2.862089999999999801e+00
5.840811674774132843e-03 2.164547999999999917e+00
5.860814454482264103e-03 -9.064520000000000355e-01
5.880817234190394496e-03 -3.648017999999999983e+00
5.900820013898524889e-03 -5.290064000000000100e+00
5.920822793606655282e-03 -7.883620999999999768e+00
5.940825573314785675e-03 -7.532513999999999932e+00
5.960828353022916935e-03 -4.559624000000000343e+00
5.980831132731047328e-03 -3.886674999999999880e+00
6.000833912439177721e-03 -2.514107000000000092e+00
6.020836692147308114e-03 8.464099999999999402e-02
6.040839471855439374e-03 2.090186999999999795e+00
6.060842251563569767e-03 3.542241999999999891e+00
6.080845031271700160e-03 2.549850999999999868e+00
6.100847810979830553e-03 -5.493109999999999937e-01
6.120850590687961813e-03 -1.709370999999999974e+00
6.140853370396092206e-03 -1.852260000000000018e-01
6.160856150104222599e-03 -3.951379999999999892e-01
6.180858929812352992e-03 -9.601790000000000047e-01
6.200861709520483385e-03 -1.518796000000000035e+00
6.220864489228614645e-03 -3.405597999999999903e+00
6.240867268936745038e-03 -3.884857999999999922e+00
6.260870048644875431e-03 -1.336332000000000075e+00
6.280872828353005824e-03 -5.707879999999999621e-01
6.300875608061137084e-03 -2.501649000000000012e+00
6.320878387769267477e-03 -3.267192999999999792e+00
6.340881167477397870e-03 -3.387818999999999914e+00
6.360883947185528263e-03 -2.510667999999999900e+00
6.380886726893659523e-03 -6.382200000000000373e-02
6.400889506601789916e-03 7.262499999999999512e-01
6.420892286309920309e-03 4.543710000000000249e-01
6.440895066018050702e-03 -5.188199999999999756e-02
6.460897845726181095e-03 -7.357329999999999703e-01
6.480900625434312355e-03 -1.464226000000000028e+00
6.500903405142442748e-03 -1.394276999999999989e+00
6.520906184850573141e-03 -1.396028999999999964e+00
6.540908964558703534e-03 -1.592702999999999980e+00
6.560911744266834794e-03 -8.651839999999999531e-01
6.580914523974965187e-03 1.247946000000000000e+00
6.600917303683095580e-03 1.444944999999999924e+00
6.620920083391225973e-03 -1.854860000000000120e-01
6.640922863099357233e-03 -2.392897000000000052e+00
6.660925642807487626e-03 -3.826977999999999991e+00
6.680928422515618019e-03 -4.443344999999999878e+00
6.700931202223748412e-03 -2.447661999999999782e+00
6.720933981931878805e-03 5.608000000000000138e-03
6.740936761640010065e-03 4.395700000000000301e-02
6.760939541348140458e-03 -8.618090000000000472e-01
6.780942321056270851e-03 -1.964250000000000052e+00
6.800945100764401244e-03 -3.100560999999999900e+00
6.820947880472532504e-03 -3.686885999999999886e+00
6.840950660180662897e-03 -2.689497999999999944e+00
6.860953439888793290e-03 -1.656422999999999979e+00
6.880956219596923683e-03 -7.372250000000000192e-01
6.900958999305054943e-03 1.548829999999999929e+00
6.920961779013185336e-03 3.119110000000000049e+00
6.940964558721315729e-03 1.728633000000000086e+00
6.960967338429446122e-03 -8.157389999999999919e-01
6.980970118137576515e-03 -3.014066000000000134e+00
7.000972897845707775e-03 -4.315906000000000020e+00
7.020975677553838168e-03 -3.583584999999999798e+00
7.040978457261968561e-03 -1.082816999999999918e+00
7.060981236970098954e-03 6.620110000000000161e-01
7.080984016678230214e-03 1.197073999999999971e+00
7.100986796386360607e-03 1.837249999999999994e-01
7.120989576094491000e-03 -1.544556999999999958e+00
7.140992355802621393e-03 -2.987267999999999812e+00
7.160995135510752653e-03 -3.612394999999999801e+00
7.180997915218883046e-03 -4.708541000000000309e+00
7.201000694927013439e-03 -4.620294000000000345e+00
7.221003474635143832e-03 -2.476926999999999879e+00
7.241006254343274225e-03 -6.174429999999999641e-01
7.261009034051405485e-03 6.183419999999999472e-01
7.281011813759535878e-03 1.670493999999999923e+00
7.301014593467666271e-03 1.123232000000000008e+00
7.321017373175796664e-03 -5.226420000000000510e-01
7.341020152883927924e-03 -9.198840000000000350e-01
7.361022932592058317e-03 -6.260080000000000089e-01
7.381025712300188710e-03 -9.422049999999999592e-01
7.401028492008319103e-03 -1.451832000000000011e+00
7.421031271716450363e-03 -2.081306999999999796e+00
7.441034051424580756e-03 -2.487373999999999974e+00
7.461036831132711149e-03 -1.977292000000000050e+00
7.481039610840841542e-03 -1.353463000000000083e+00
7.501042390548971935e-03 -1.474218999999999946e+00
7.521045170257103195e-03 -1.285136000000000056e+00
7.541047949965233588e-03 -8.049030000000000351e-01
7.561050729673363981e-03 -1.035838000000000036e+00
7.581053509381494374e-03 -1.415689999999999893e+00
7.601056289089625634e-03 -1.499006000000000061e+00
7.621059068797756027e-03 -2.098437000000000108e+00
7.641061848505886420e-03 -3.021269000000000204e+00
7.661064628214016813e-03 -2.551807000000000158e+00
7.681067407922147205e-03 -1.198706000000000049e+00
7.701070187630278466e-03 -5.444440000000000390e-01
7.721072967338408859e-03 -4.509409999999999807e-01
7.741075747046539252e-03 -2.342809999999999893e-01
7.761078526754669644e-03 -3.924770000000000203e-01
7.781081306462800905e-03 -7.021859999999999769e-01
7.801084086170931298e-03 1.092899999999999948e-02
7.821086865879062558e-03 7.829620000000000468e-01
7.841089645587192083e-03 -4.220659999999999967e-01
7.861092425295323344e-03 -1.603280000000000038e+00
