# time(s), 	 	 acceleration(g)
0.000000000000000000e+00 6.248833000000000304e+00
2.000277970813059281e-05 6.475291000000000352e+00
4.000555941626118562e-05 6.700711000000000084e+00
6.000833912439177504e-05 6.951954999999999885e+00
8.001111883252237124e-05 7.228635999999999839e+00
1.000138985406529674e-04 7.493377999999999872e+00
1.200166782487835501e-04 7.826900000000000190e+00
1.400194579569141598e-04 8.175216000000000705e+00
1.600222376650447425e-04 8.522235000000000227e+00
1.800250173731753251e-04 8.902281999999999584e+00
2.000277970813059349e-04 9.309711000000000070e+00
2.200305767894365175e-04 9.710781000000000773e+00
2.400333564975671002e-04 1.017076999999999920e+01
2.600361362056977099e-04 1.068454999999999977e+01
2.800389159138283197e-04 1.122454399999999985e+01
3.000416956219588752e-04 1.184746499999999969e+01
3.200444753300894850e-04 1.254364400000000046e+01
3.400472550382200947e-04 1.331710499999999975e+01
3.600500347463506503e-04 1.420859500000000075e+01
3.800528144544812600e-04 1.520299799999999912e+01
4.000555941626118698e-04 1.625904299999999836e+01
4.200583738707424253e-04 1.752941300000000169e+01
4.400611535788730351e-04 1.888478500000000082e+01
4.600639332870036448e-04 2.055356400000000150e+01
4.800667129951342003e-04 2.241798000000000002e+01
5.000694927032648101e-04 2.471895900000000168e+01
5.200722724113954198e-04 2.762112199999999973e+01
5.400750521195260296e-04 3.126501499999999822e+01
5.600778318276566393e-04 3.663037599999999827e+01
5.800806115357871407e-04 4.435543899999999695e+01
6.000833912439177504e-04 5.740543900000000122e+01
6.200861709520483602e-04 7.872873699999999531e+01
6.400889506601789699e-04 1.116473189999999960e+02
6.600917303683095797e-04 1.597017779999999902e+02
6.800945100764401894e-04 2.213516170000000045e+02
7.000972897845707992e-04 2.959824140000000057e+02
7.201000694927013005e-04 3.746451329999999871e+02
7.401028492008319103e-04 4.453452340000000049e+02
7.601056289089625200e-04 4.935608740000000125e+02
7.801084086170931298e-04 5.100134489999999801e+02
8.001111883252237395e-04 4.931315119999999865e+02
8.201139680333543493e-04 4.534812959999999862e+02
8.401167477414848506e-04 4.040134550000000218e+02
8.601195274496154604e-04 3.540289789999999925e+02
8.801223071577460701e-04 3.053387519999999995e+02
9.001250868658766799e-04 2.631126919999999814e+02
9.201278665740072896e-04 2.183461529999999868e+02
9.401306462821378994e-04 1.683708259999999939e+02
9.601334259902684007e-04 1.147341519999999946e+02
9.801362056983990104e-04 6.741182000000000585e+01
1.000138985406529620e-03 2.829154000000000124e+01
1.020141765114660230e-03 2.535185999999999940e+00
1.040144544822790840e-03 -8.366059999999999164e+00
1.060147324530921449e-03 -7.927939000000000291e+00
1.080150104239052059e-03 4.458584000000000103e+00
1.100152883947182669e-03 2.834786300000000026e+01
1.120155663655313279e-03 4.851330699999999752e+01
1.140158443363443888e-03 6.861094300000000601e+01
1.160161223071574281e-03 7.122000900000000456e+01
1.180164002779704891e-03 6.012169800000000208e+01
1.200166782487835501e-03 3.903186600000000084e+01
1.220169562195966111e-03 3.865965999999999791e+00
1.240172341904096720e-03 -1.672987699999999833e+01
1.260175121612227330e-03 -4.012944900000000104e+01
1.280177901320357940e-03 -4.691188999999999965e+01
1.300180681028488550e-03 -3.553079999999999927e+01
1.320183460736619159e-03 -1.903150499999999923e+01
1.340186240444749769e-03 -5.129089999999999483e-01
1.360189020152880379e-03 1.972254900000000077e+01
1.380191799861010989e-03 2.534343700000000155e+01
1.400194579569141598e-03 3.260124499999999870e+01
1.420197359277271991e-03 1.472081799999999951e+01
1.440200138985402601e-03 5.291417000000000037e+00
1.460202918693533211e-03 7.990287000000000361e+00
1.480205698401663821e-03 -2.535324999999999829e+00
1.500208478109794430e-03 7.417524000000000228e+00
1.520211257817925040e-03 1.143847899999999917e+01
1.540214037526055650e-03 1.514167899999999989e+01
1.560216817234186260e-03 2.132377999999999929e+01
1.580219596942316869e-03 1.333799800000000069e+01
1.600222376650447479e-03 9.898372000000000170e+00
1.620225156358578089e-03 -4.188207000000000235e+00
1.640227936066708699e-03 -2.919201000000000157e+00
1.660230715774839308e-03 8.227646000000000015e+00
1.680233495482969701e-03 3.884653999999999829e+00
1.700236275191100311e-03 7.130656000000000105e+00
1.720239054899230921e-03 6.974925999999999959e+00
1.740241834607361530e-03 -1.484990000000000032e+00
1.760244614315492140e-03 -1.222414700000000032e+01
1.780247394023622750e-03 -1.966188800000000114e+01
1.800250173731753360e-03 -3.196022999999999925e+01
1.820252953439883969e-03 -3.769045400000000257e+01
1.840255733148014579e-03 -2.182543599999999984e+01
1.860258512856145189e-03 -1.314723799999999976e+01
1.880261292564275799e-03 1.032734300000000083e+01
1.900264072272406408e-03 3.131199300000000108e+01
1.920266851980536801e-03 3.737846499999999850e+01
1.940269631688667411e-03 5.014023399999999953e+01
1.960272411396798021e-03 3.384332299999999805e+01
1.980275191104928847e-03 2.600496599999999958e+01
2.000277970813059240e-03 6.987188999999999872e+00
2.020280750521190067e-03 -1.236391500000000043e+01
2.040283530229320460e-03 -1.544984000000000002e+01
2.060286309937450853e-03 -2.567826700000000173e+01
2.080289089645581679e-03 -2.268870000000000076e+01
2.100291869353712072e-03 -1.380688600000000044e+01
2.120294649061842899e-03 -1.137729900000000072e+01
2.140297428769973292e-03 -3.137936999999999976e+00
2.160300208478104118e-03 -5.957432999999999979e+00
2.180302988186234511e-03 -5.395780000000000021e-01
2.200305767894365338e-03 -5.810138000000000247e+00
2.220308547602495731e-03 -1.049294599999999988e+01
2.240311327310626557e-03 -7.761243000000000336e+00
2.260314107018756950e-03 -9.732203999999999411e+00
2.280316886726887777e-03 1.437611999999999890e+00
2.300319666435018170e-03 -1.173788999999999971e+00
2.320322446143148563e-03 8.919866999999999990e+00
2.340325225851279389e-03 7.668834000000000373e+00
2.360328005559409782e-03 6.078567999999999749e+00
2.380330785267540609e-03 1.286775800000000025e+01
2.400333564975671002e-03 2.353177000000000074e+00
2.420336344683801828e-03 7.842018999999999629e+00
2.440339124391932221e-03 9.678986999999999341e+00
2.460341904100063048e-03 4.597313999999999901e+00
2.480344683808193441e-03 2.368100999999999789e+00
2.500347463516324267e-03 -7.253433000000000241e+00
2.520350243224454660e-03 -1.243879500000000071e+01
2.540353022932585487e-03 -1.572723399999999927e+01
2.560355802640715880e-03 -1.953133499999999856e+01
2.580358582348846273e-03 -1.716241799999999884e+01
2.600361362056977099e-03 -1.569524499999999989e+01
2.620364141765107492e-03 -9.528522000000000602e+00
2.640366921473238319e-03 -3.973364000000000118e+00
2.660369701181368712e-03 -4.241545000000000343e+00
2.680372480889499538e-03 3.257579999999999920e+00
2.700375260597629931e-03 -5.549548999999999843e+00
2.720378040305760758e-03 9.275200000000000111e-02
2.740380820013891151e-03 1.151783000000000001e+00
2.760383599722021977e-03 5.024079999999999657e+00
2.780386379430152370e-03 9.234052000000000149e+00
2.800389159138283197e-03 1.393470499999999923e+01
2.820391938846413590e-03 1.107127999999999979e+01
2.840394718554543983e-03 3.355754999999999821e+00
2.860397498262674809e-03 -9.499269999999999659e-01
2.880400277970805202e-03 -2.491721000000000075e+00
2.900403057678936029e-03 -5.287079000000000306e+00
2.920405837387066422e-03 -8.842140999999999806e+00
2.940408617095197248e-03 -1.167805300000000024e+01
2.960411396803327641e-03 -8.530160999999999660e+00
2.980414176511458468e-03 -6.158972999999999587e+00
3.000416956219588861e-03 -5.509123999999999910e+00
3.020419735927719687e-03 -9.790407999999999333e+00
3.040422515635850080e-03 -1.896564400000000106e+01
3.060425295343980907e-03 -1.804443500000000000e+01
3.080428075052111300e-03 -1.397961600000000004e+01
3.100430854760241692e-03 -8.252961000000000880e+00
3.120433634468372519e-03 -2.956250999999999962e+00
3.140436414176502912e-03 6.753529000000000337e+00
3.160439193884633739e-03 1.561730499999999999e+01
3.180441973592764131e-03 1.359157899999999941e+01
3.200444753300894958e-03 1.368332999999999977e+01
3.220447533009025351e-03 8.475061999999999429e+00
3.240450312717156178e-03 -4.731330000000000258e-01
3.260453092425286570e-03 -3.278029000000000082e+00
3.280455872133417397e-03 -3.857150999999999996e+00
3.300458651841547790e-03 -6.729594999999999771e+00
3.320461431549678617e-03 -3.796676000000000162e+00
3.340464211257809009e-03 4.220965999999999774e+00
3.360466990965939402e-03 -1.969894999999999952e+00
3.380469770674070229e-03 -7.243504999999999860e+00
3.400472550382200622e-03 -8.294359999999999289e+00
3.420475330090331448e-03 -1.743046899999999866e+01
3.440478109798461841e-03 -1.940746400000000094e+01
3.460480889506592668e-03 -1.587537200000000048e+01
3.480483669214723061e-03 -1.249725899999999967e+01
3.500486448922853887e-03 -8.704838000000000520e+00
3.520489228630984280e-03 4.453653000000000084e+00
3.540492008339115107e-03 1.120838700000000010e+01
3.560494788047245500e-03 8.440217000000000525e+00
3.580497567755376326e-03 1.045225199999999965e+01
3.600500347463506719e-03 4.496737999999999680e+00
3.620503127171637112e-03 -3.734707999999999917e+00
3.640505906879767939e-03 -2.398022999999999794e+00
3.660508686587898332e-03 -5.750894999999999868e+00
3.680511466296029158e-03 -1.600619999999999932e+00
3.700514246004159551e-03 2.115883000000000180e+00
3.720517025712290378e-03 2.516887999999999792e+00
3.740519805420420771e-03 2.673137000000000096e+00
3.760522585128551597e-03 3.918189999999999729e-01
3.780525364836681990e-03 -8.806270000000000486e-01
3.800528144544812817e-03 -4.336669999999999803e+00
3.820530924252943210e-03 -4.829621000000000386e+00
3.840533703961073603e-03 -1.008331100000000013e+01
3.860536483669204429e-03 -1.357925999999999966e+01
3.880539263377334822e-03 -1.151492600000000088e+01
3.900542043085465649e-03 -1.327610499999999938e+01
3.920544822793596042e-03 -9.740899000000000640e+00
3.940547602501726435e-03 -4.924876000000000253e+00
3.960550382209857695e-03 2.450702999999999854e+00
3.980553161917988088e-03 5.179940000000000211e+00
4.000555941626118481e-03 1.223127500000000012e+01
4.020558721334248874e-03 1.519605499999999942e+01
4.040561501042380134e-03 6.320922999999999625e+00
4.060564280750510527e-03 7.143697999999999659e+00
4.080567060458640920e-03 2.145471000000000128e+00
4.100569840166771313e-03 -5.554999999999999716e+00
4.120572619874901706e-03 -1.307002999999999915e+00
4.140575399583032966e-03 -5.533326999999999884e+00
4.160578179291163359e-03 -5.820844000000000129e+00
4.180580958999293752e-03 -4.443735000000000213e+00
4.200583738707424145e-03 -5.062114000000000225e+00
4.220586518415555405e-03 -4.902230000000000310e+00
4.240589298123685798e-03 -5.047318999999999889e+00
4.260592077831816191e-03 -4.790364000000000289e+00
4.280594857539946584e-03 -6.703899999999999970e+00
4.300597637248077844e-03 -3.793496000000000201e+00
4.320600416956208237e-03 -1.331596000000000002e+00
4.340603196664338630e-03 -3.755276999999999976e+00
4.360605976372469023e-03 1.378824000000000050e+00
4.380608756080599415e-03 2.494956000000000174e+00
4.400611535788730676e-03 1.749527000000000054e+00
4.420614315496861069e-03 4.597055000000000113e+00
4.440617095204991462e-03 5.385438999999999865e+00
4.460619874913121854e-03 3.540878999999999888e+00
4.480622654621253115e-03 5.053069999999999506e-01
4.500625434329383508e-03 -1.227646000000000015e+00
4.520628214037513901e-03 -5.458770999999999596e+00
4.540630993745644294e-03 -5.299471999999999738e+00
4.560633773453775554e-03 9.477109999999999701e-01
4.580636553161905947e-03 1.002606000000000108e+00
4.600639332870036340e-03 3.255567999999999795e+00
4.620642112578166733e-03 3.017431000000000196e+00
4.640644892286297125e-03 -3.514413999999999927e+00
4.660647671994428386e-03 -2.960857999999999990e+00
4.680650451702558779e-03 -8.381828000000000500e+00
4.700653231410689172e-03 -1.303316599999999958e+01
4.720656011118819564e-03 -1.431463100000000033e+01
4.740658790826950825e-03 -8.450673999999999353e+00
4.760661570535081218e-03 1.662382999999999944e+00
4.780664350243211611e-03 8.507960000000000633e+00
4.800667129951342003e-03 1.177329899999999974e+01
4.820669909659473264e-03 1.031585800000000042e+01
4.840672689367603657e-03 4.984822999999999560e+00
4.860675469075734050e-03 7.662849999999999939e-01
4.880678248783864442e-03 -6.859630000000000116e+00
4.900681028491994835e-03 -8.756942999999999699e+00
4.920683808200126096e-03 -7.517525000000000013e+00
4.940686587908256489e-03 -4.674344999999999750e+00
4.960689367616386881e-03 4.872040000000000259e-01
4.980692147324517274e-03 3.698751000000000122e+00
5.000694927032648535e-03 1.184096999999999955e+00
5.020697706740778928e-03 -1.670439000000000007e+00
5.040700486448909320e-03 -1.156139999999999946e+00
5.060703266157039713e-03 -3.526613000000000220e+00
5.080706045865170974e-03 -7.424809999999999466e-01
5.100708825573301367e-03 -5.845449999999999813e-01
5.120711605281431759e-03 -2.362140000000000128e+00
5.140714384989562152e-03 -4.393965999999999816e+00
5.160717164697692545e-03 -5.112790999999999642e+00
5.180719944405823806e-03 -4.021706000000000003e+00
5.200722724113954198e-03 -1.698989000000000082e+00
5.220725503822084591e-03 -7.896539999999999671e-01
5.240728283530214984e-03 -1.074381000000000030e+00
5.260731063238346245e-03 -1.185662999999999911e+00
5.280733842946476637e-03 3.252388999999999974e+00
5.300736622654607030e-03 3.533936000000000188e+00
5.320739402362737423e-03 3.764482000000000106e+00
5.340742182070868684e-03 -9.762800000000000644e-02
5.360744961778999076e-03 -2.425730000000000164e+00
5.380747741487129469e-03 -3.404170000000000140e+00
5.400750521195259862e-03 -3.053258000000000028e+00
5.420753300903390255e-03 -4.254846999999999824e+00
5.440756080611521515e-03 -4.660588999999999871e+00
5.460758860319651908e-03 -3.644839000000000162e+00
5.480761640027782301e-03 -2.231522000000000006e+00
5.500764419735912694e-03 7.509719999999999729e-01
5.520767199444043954e-03 7.484410000000000229e-01
5.540769979152174347e-03 -3.056242999999999821e+00
5.560772758860304740e-03 -2.770023999999999820e+00
5.580775538568435133e-03 -4.188401999999999958e+00
5.600778318276566393e-03 -3.092449999999999921e+00
5.620781097984696786e-03 -2.164369999999999905e-01
5.640783877692827179e-03 4.593019999999999881e-01
5.660786657400957572e-03 2.334930000000000061e-01
5.680789437109087965e-03 -1.469157000000000046e+00
5.700792216817219225e-03 -5.424330000000000540e-01
5.720794996525349618e-03 -5.397720000000000296e-01
5.740797776233480011e-03 -1.837989999999999902e-01
5.760800555941610404e-03 4.188769999999999993e-01
5.780803335649741664e-03 -1.586927999999999894e+00
5.800806115357872057e-03 -1.459165000000000045e+00
5.820808895066002450e-03 -5.440549999999999553e-01
5.840811674774132843e-03 -1.106694999999999984e+00
5.860814454482264103e-03 4.915510000000000157e-01
5.880817234190394496e-03 -2.375767000000000184e+00
5.900820013898524889e-03 -4.293130999999999808e+00
5.920822793606655282e-03 -5.321468999999999561e+00
5.940825573314785675e-03 -5.790477000000000096e+00
5.960828353022916935e-03 -5.608792000000000222e+00
5.980831132731047328e-03 -3.166746999999999979e+00
6.000833912439177721e-03 -1.946471000000000062e+00
6.020836692147308114e-03 -1.095080000000000053e+00
6.040839471855439374e-03 1.701640000000000041e+00
6.060842251563569767e-03 4.186899999999999622e+00
6.080845031271700160e-03 3.950644000000000045e+00
6.100847810979830553e-03 1.744596000000000036e+00
6.120850590687961813e-03 -2.204593000000000025e+00
6.140853370396092206e-03 -4.040458000000000105e+00
6.160856150104222599e-03 -2.588728000000000140e+00
6.180858929812352992e-03 -7.441029999999999589e-01
6.200861709520483385e-03 -1.305056999999999912e+00
6.220864489228614645e-03 -2.194859999999999811e+00
6.240867268936745038e-03 -2.674704000000000192e+00
6.260870048644875431e-03 -3.002127000000000212e+00
6.280872828353005824e-03 -1.122851999999999961e+00
6.300875608061137084e-03 -4.118140000000000134e-01
6.320878387769267477e-03 -2.296149999999999913e+00
6.340881167477397870e-03 -4.106124000000000329e+00
6.360883947185528263e-03 -4.186910000000000132e+00
6.380886726893659523e-03 -2.190252999999999783e+00
6.400889506601789916e-03 8.106689999999999729e-01
6.420892286309920309e-03 2.671126000000000111e+00
6.440895066018050702e-03 2.512929999999999886e+00
6.460897845726181095e-03 1.040429999999999966e-01
6.480900625434312355e-03 -1.438919999999999977e+00
6.500903405142442748e-03 -2.174745000000000150e+00
6.520906184850573141e-03 -1.542286000000000046e+00
6.540908964558703534e-03 -1.211033999999999944e+00
6.560911744266834794e-03 -1.909613999999999923e+00
6.580914523974965187e-03 -6.882350000000000412e-01
6.600917303683095580e-03 1.235942000000000096e+00
6.620920083391225973e-03 1.093838000000000088e+00
6.640922863099357233e-03 -8.726460000000000328e-01
6.660925642807487626e-03 -3.819516000000000133e+00
6.680928422515618019e-03 -6.118419000000000274e+00
6.700931202223748412e-03 -4.851683000000000412e+00
6.720933981931878805e-03 -1.634166000000000007e+00
6.740936761640010065e-03 3.876009999999999733e-01
6.760939541348140458e-03 2.447134000000000142e+00
6.780942321056270851e-03 1.092020999999999908e+00
6.800945100764401244e-03 -1.909159999999999968e+00
6.820947880472532504e-03 -2.655692000000000164e+00
6.840950660180662897e-03 -3.544782000000000100e+00
6.860953439888793290e-03 -3.343694999999999862e+00
6.880956219596923683e-03 -9.841229999999999700e-01
6.900958999305054943e-03 6.212499999999999967e-02
6.920961779013185336e-03 8.972290000000000543e-01
6.940964558721315729e-03 1.957492000000000010e+00
6.960967338429446122e-03 1.528389999999999915e+00
6.980970118137576515e-03 -1.121359999999999912e+00
7.000972897845707775e-03 -3.505395000000000039e+00
7.020975677553838168e-03 -4.195020999999999667e+00
7.040978457261968561e-03 -3.966616000000000142e+00
7.060981236970098954e-03 -1.343730000000000091e+00
7.080984016678230214e-03 1.299271999999999982e+00
7.100986796386360607e-03 1.068143000000000065e+00
7.120989576094491000e-03 -1.924289999999999889e-01
7.140992355802621393e-03 -1.115000999999999909e+00
7.160995135510752653e-03 -2.638107000000000202e+00
7.180997915218883046e-03 -4.324212000000000167e+00
7.201000694927013439e-03 -4.131171000000000149e+00
7.221003474635143832e-03 -3.995816000000000034e+00
7.241006254343274225e-03 -2.762561999999999962e+00
7.261009034051405485e-03 -6.576799999999999313e-02
7.281011813759535878e-03 1.469797000000000020e+00
7.301014593467666271e-03 2.332996000000000070e+00
7.321017373175796664e-03 9.858000000000000096e-01
7.341020152883927924e-03 -1.321603000000000083e+00
7.361022932592058317e-03 -1.809881999999999991e+00
7.381025712300188710e-03 -1.445928000000000102e+00
7.401028492008319103e-03 -6.777229999999999643e-01
7.421031271716450363e-03 -7.276219999999999910e-01
7.441034051424580756e-03 -2.074688000000000088e+00
7.461036831132711149e-03 -2.559722999999999971e+00
7.481039610840841542e-03 -2.229963999999999835e+00
7.501042390548971935e-03 -1.557404000000000011e+00
7.521045170257103195e-03 -1.418739999999999890e+00
7.541047949965233588e-03 -1.310702000000000034e+00
7.561050729673363981e-03 -1.349569000000000019e+00
7.581053509381494374e-03 -1.771144000000000052e+00
7.601056289089625634e-03 -1.859715999999999925e+00
7.621059068797756027e-03 -1.879571000000000103e+00
7.641061848505886420e-03 -2.214910999999999852e+00
7.661064628214016813e-03 -1.713263999999999898e+00
7.681067407922147205e-03 -2.433009999999999895e-01
7.701070187630278466e-03 9.955999999999999572e-03
7.721072967338408859e-03 1.352530000000000121e-01
7.741075747046539252e-03 2.642499999999999849e-01
7.761078526754669644e-03 -7.796619999999999662e-01
7.781081306462800905e-03 -1.699767999999999946e+00
7.801084086170931298e-03 -2.030046000000000017e+00
7.821086865879062558e-03 -1.745838000000000001e+00
7.841089645587192083e-03 -9.462279999999999580e-01
7.861092425295323344e-03 -4.858509999999999773e-01
7.881095205003452869e-03 -1.149197000000000024e+00
