# time(s), 	 	 acceleration(g)
0.000000000000000000e+00 6.064487999999999879e+00
2.000277970813064702e-05 6.262265000000000192e+00
4.000555941626129404e-05 6.520907000000000231e+00
6.000833912439193767e-05 6.748338000000000392e+00
8.001111883252258808e-05 7.008408000000000193e+00
1.000138985406532385e-04 7.293588999999999878e+00
1.200166782487838753e-04 7.575395000000000323e+00
1.400194579569145393e-04 7.920338000000000100e+00
1.600222376650451762e-04 8.247761000000000564e+00
1.800250173731758130e-04 8.605615999999999488e+00
2.000277970813064770e-04 8.968337999999999255e+00
2.200305767894371138e-04 9.387316999999999467e+00
2.400333564975677507e-04 9.812459999999999738e+00
2.600361362056984147e-04 1.031430100000000039e+01
2.800389159138290786e-04 1.085033800000000070e+01
3.000416956219596884e-04 1.145736100000000057e+01
3.200444753300903523e-04 1.209968300000000063e+01
3.400472550382210163e-04 1.279514900000000033e+01
3.600500347463516260e-04 1.360144200000000048e+01
3.800528144544822900e-04 1.450435300000000005e+01
4.000555941626129540e-04 1.549213699999999960e+01
4.200583738707435637e-04 1.662818899999999900e+01
4.400611535788742277e-04 1.800283299999999898e+01
4.600639332870048916e-04 1.944800899999999899e+01
4.800667129951355014e-04 2.125097600000000142e+01
5.000694927032662196e-04 2.331297400000000053e+01
5.200722724113968293e-04 2.592820400000000092e+01
5.400750521195274391e-04 2.908076799999999906e+01
5.600778318276581572e-04 3.325310600000000250e+01
5.800806115357887670e-04 3.944208499999999873e+01
6.000833912439193767e-04 4.909976100000000088e+01
6.200861709520500949e-04 6.562436200000000497e+01
6.400889506601807047e-04 9.213685099999999295e+01
6.600917303683113144e-04 1.324521009999999990e+02
6.800945100764420326e-04 1.883347939999999880e+02
7.000972897845726423e-04 2.582928410000000099e+02
7.201000694927032521e-04 3.391096329999999739e+02
7.401028492008339702e-04 4.186350320000000238e+02
7.601056289089645800e-04 4.834815580000000068e+02
7.801084086170951898e-04 5.180032539999999699e+02
8.001111883252259079e-04 5.155917709999999943e+02
8.201139680333565177e-04 4.820694740000000138e+02
8.401167477414871274e-04 4.321273699999999849e+02
8.601195274496178456e-04 3.788634109999999851e+02
8.801223071577484553e-04 3.288322160000000167e+02
9.001250868658790651e-04 2.825898080000000050e+02
9.201278665740097833e-04 2.412549150000000111e+02
9.401306462821403930e-04 1.931475719999999967e+02
9.601334259902710028e-04 1.400573170000000118e+02
9.801362056984016125e-04 8.802414500000000430e+01
1.000138985406532439e-03 4.454218600000000094e+01
1.020141765114663049e-03 1.043752300000000055e+01
1.040144544822793659e-03 -7.117297999999999902e+00
1.060147324530924268e-03 -1.158727499999999999e+01
1.080150104239054878e-03 -5.608985999999999805e+00
1.100152883947185488e-03 1.481795499999999954e+01
1.120155663655316314e-03 3.865947599999999795e+01
1.140158443363446924e-03 5.859995399999999677e+01
1.160161223071577534e-03 7.524355900000000474e+01
1.180164002779708144e-03 6.995009299999999541e+01
1.200166782487838753e-03 5.509615399999999852e+01
1.220169562195969363e-03 2.394082699999999875e+01
1.240172341904100190e-03 -4.056225999999999665e+00
1.260175121612230800e-03 -2.956250299999999953e+01
1.280177901320361409e-03 -5.061749100000000112e+01
1.300180681028492019e-03 -4.962406200000000212e+01
1.320183460736622629e-03 -3.881125699999999767e+01
1.340186240444753455e-03 -1.919184299999999865e+01
1.360189020152884065e-03 8.027727000000000501e+00
1.380191799861014675e-03 1.932329500000000166e+01
1.400194579569145285e-03 3.701885800000000160e+01
1.420197359277275894e-03 3.361349200000000081e+01
1.440200138985406504e-03 1.885506699999999825e+01
1.460202918693537331e-03 1.947973899999999858e+01
1.480205698401667940e-03 5.893639000000000294e+00
1.500208478109798550e-03 6.657301000000000357e+00
1.520211257817929160e-03 5.588148000000000337e+00
1.540214037526059770e-03 6.990238999999999869e+00
1.560216817234190380e-03 1.416336899999999943e+01
1.580219596942321206e-03 9.226331000000000060e+00
1.600222376650451816e-03 6.862540000000000084e+00
1.620225156358582426e-03 -3.083830000000000182e-01
1.640227936066713035e-03 -6.787149999999999572e+00
1.660230715774843645e-03 3.291320999999999941e+00
1.680233495482974255e-03 9.530393999999999366e+00
1.700236275191105081e-03 1.006837699999999991e+01
1.720239054899235691e-03 7.766748999999999903e+00
1.740241834607366301e-03 5.355850000000000222e+00
1.760244614315496911e-03 -1.070947600000000044e+01
1.780247394023627520e-03 -1.367140000000000022e+01
1.800250173731758130e-03 -2.619950899999999905e+01
1.820252953439888957e-03 -4.252685100000000062e+01
1.840255733148019567e-03 -2.676234399999999880e+01
1.860258512856150176e-03 -2.407645099999999871e+01
1.880261292564280786e-03 4.685755999999999588e+00
1.900264072272411396e-03 2.957397900000000135e+01
1.920266851980542006e-03 2.780546700000000016e+01
1.940269631688672832e-03 5.915052599999999927e+01
1.960272411396803225e-03 3.734517699999999962e+01
1.980275191104934052e-03 2.977545500000000089e+01
2.000277970813064878e-03 2.515149999999999864e+01
2.020280750521195271e-03 -1.288230199999999925e+01
2.040283530229326098e-03 -1.582287799999999933e+01
2.060286309937456491e-03 -2.183705099999999888e+01
2.080289089645587317e-03 -3.324824900000000127e+01
2.100291869353718144e-03 -1.901119600000000176e+01
2.120294649061848537e-03 -1.972450500000000062e+01
2.140297428769979363e-03 -2.829266000000000059e+00
2.160300208478109756e-03 -8.136877000000000137e+00
2.180302988186240583e-03 -4.419791000000000025e+00
2.200305767894370976e-03 7.250892999999999589e+00
2.220308547602501802e-03 -9.441701999999999373e+00
2.240311327310632629e-03 4.469739999999999824e-01
2.260314107018763022e-03 -9.800140999999999991e+00
2.280316886726893848e-03 -2.488931000000000004e+00
2.300319666435024241e-03 3.707309999999999772e-01
2.320322446143155068e-03 6.329943000000000097e+00
2.340325225851285895e-03 7.118002999999999858e+00
2.360328005559416287e-03 8.361039999999999583e-01
2.380330785267547114e-03 9.047760000000000247e+00
2.400333564975677507e-03 -8.711599999999999899e-02
2.420336344683808334e-03 3.396310000000000162e+00
2.440339124391938726e-03 1.805915500000000051e+01
2.460341904100069553e-03 2.552960000000000229e-01
2.480344683808200380e-03 1.048560400000000037e+01
2.500347463516330773e-03 1.171184000000000003e+00
2.520350243224461599e-03 -8.830526000000000764e+00
2.540353022932591992e-03 -1.323165700000000022e+01
2.560355802640722819e-03 -2.115722299999999834e+01
2.580358582348853645e-03 -2.402038800000000052e+01
2.600361362056984038e-03 -2.630858500000000078e+01
2.620364141765114865e-03 -1.529962500000000070e+01
2.640366921473245258e-03 -3.999579000000000217e+00
2.660369701181376084e-03 -2.308000000000000156e-03
2.680372480889506911e-03 6.343309999999999782e+00
2.700375260597637304e-03 2.355188000000000059e+00
2.720378040305768130e-03 -3.847559999999999869e-01
2.740380820013898523e-03 4.678163999999999767e+00
2.760383599722029350e-03 4.142127999999999588e+00
2.780386379430159743e-03 9.339104999999999990e+00
2.800389159138290569e-03 5.724217000000000333e+00
2.820391938846421396e-03 7.169782999999999795e+00
2.840394718554551789e-03 5.941914999999999836e+00
2.860397498262682615e-03 1.012208999999999914e+00
2.880400277970813008e-03 -3.777339000000000002e+00
2.900403057678943835e-03 -3.884403999999999968e+00
2.920405837387074661e-03 -1.162056300000000064e+01
2.940408617095205054e-03 -1.116440300000000008e+01
2.960411396803335881e-03 -5.145429000000000030e+00
2.980414176511466274e-03 -4.305265000000000342e+00
3.000416956219597100e-03 -4.796657999999999866e+00
3.020419735927727493e-03 -7.663327999999999918e+00
3.040422515635858320e-03 -1.338589499999999965e+01
3.060425295343989147e-03 -2.064097699999999946e+01
3.080428075052119540e-03 -1.437997299999999967e+01
3.100430854760250366e-03 -8.481170999999999793e+00
3.120433634468380759e-03 -1.213369400000000020e+01
3.140436414176511586e-03 5.876500000000000057e-01
3.160439193884642412e-03 1.232250699999999988e+01
3.180441973592772805e-03 1.363122500000000059e+01
3.200444753300903632e-03 1.815596800000000144e+01
3.220447533009034025e-03 1.532453199999999960e+01
3.240450312717164851e-03 3.450814999999999966e+00
3.260453092425295678e-03 -1.432440000000000102e-01
3.280455872133426071e-03 -5.967440000000000522e-01
3.300458651841556897e-03 -7.382882999999999640e+00
3.320461431549687290e-03 -7.597207000000000043e+00
3.340464211257818117e-03 -3.155209999999999959e-01
3.360466990965948510e-03 -7.964990000000000236e+00
3.380469770674079336e-03 -7.908796999999999855e+00
3.400472550382210163e-03 -5.365528000000000297e+00
3.420475330090340556e-03 -1.679405099999999962e+01
3.440478109798471382e-03 -1.709688200000000080e+01
3.460480889506601775e-03 -1.579024000000000072e+01
3.480483669214732602e-03 -1.185895999999999972e+01
3.500486448922863428e-03 -4.942135999999999640e+00
3.520489228630993821e-03 6.453424000000000049e+00
3.540492008339124648e-03 9.499313000000000784e+00
3.560494788047255041e-03 8.539365999999999346e+00
3.580497567755385867e-03 8.342496999999999829e+00
3.600500347463516260e-03 2.135543999999999887e+00
3.620503127171647087e-03 -4.006717000000000084e+00
3.640505906879777914e-03 -3.631212000000000106e+00
3.660508686587908306e-03 -8.003144000000000702e+00
3.680511466296039133e-03 -3.976090000000000124e+00
3.700514246004169526e-03 2.948455000000000048e+00
3.720517025712300353e-03 6.846059000000000339e+00
3.740519805420431179e-03 8.436389000000000138e+00
3.760522585128561572e-03 3.593049000000000159e+00
3.780525364836692399e-03 -5.336729999999999530e-01
3.800528144544822792e-03 -7.523430000000000284e+00
3.820530924252953618e-03 -8.738903999999999783e+00
3.840533703961084011e-03 -1.189568599999999954e+01
3.860536483669214838e-03 -1.584370700000000021e+01
3.880539263377345664e-03 -1.158020299999999914e+01
3.900542043085476057e-03 -1.378443399999999919e+01
3.920544822793606450e-03 -8.289232999999999407e+00
3.940547602501737710e-03 7.347500000000000142e-01
3.960550382209868103e-03 2.456932000000000116e+00
3.980553161917998496e-03 6.191666999999999810e+00
4.000555941626129756e-03 1.200546699999999944e+01
4.020558721334260149e-03 1.081932100000000041e+01
4.040561501042390542e-03 9.154305000000000803e+00
4.060564280750520935e-03 9.118228000000000222e+00
4.080567060458652195e-03 -5.395780000000000021e-01
4.100569840166782588e-03 -5.416788999999999632e+00
4.120572619874912981e-03 -3.171094000000000079e+00
4.140575399583044242e-03 -6.227624999999999744e+00
4.160578179291174634e-03 -4.071279999999999788e+00
4.180580958999305027e-03 -1.715081000000000078e+00
4.200583738707436288e-03 -6.220032999999999923e+00
4.220586518415566681e-03 -5.428792999999999758e+00
4.240589298123697073e-03 -4.219612999999999836e+00
4.260592077831827466e-03 -5.106626000000000332e+00
4.280594857539958727e-03 -6.242029999999999745e+00
4.300597637248089120e-03 -1.843104999999999993e+00
4.320600416956219512e-03 -2.102784999999999904e+00
4.340603196664350773e-03 -4.597128999999999799e+00
4.360605976372481166e-03 2.871239000000000097e+00
4.380608756080611559e-03 1.386222000000000065e+00
4.400611535788741951e-03 -2.118299999999999905e-01
4.420614315496873212e-03 3.263354999999999784e+00
4.440617095205003605e-03 2.383802999999999894e+00
4.460619874913133998e-03 3.784402000000000044e+00
4.480622654621265258e-03 5.340730999999999895e+00
4.500625434329395651e-03 2.579114999999999824e+00
4.520628214037526044e-03 -3.756120999999999821e+00
4.540630993745657304e-03 -4.915403000000000411e+00
4.560633773453787697e-03 -3.176480000000000192e+00
4.580636553161918090e-03 -1.723516999999999966e+00
4.600639332870048483e-03 4.369688000000000017e+00
4.620642112578179743e-03 2.613440999999999903e+00
4.640644892286310136e-03 -2.105185999999999780e+00
4.660647671994440529e-03 -1.522100000000000015e-02
4.680650451702571789e-03 -7.289380000000000415e+00
4.700653231410702182e-03 -1.162166599999999939e+01
4.720656011118832575e-03 -1.368573999999999913e+01
4.740658790826962968e-03 -1.392134700000000080e+01
4.760661570535094228e-03 -5.002676000000000123e+00
4.780664350243224621e-03 5.339368999999999588e+00
4.800667129951355014e-03 1.223523400000000017e+01
4.820669909659486274e-03 1.399810000000000088e+01
4.840672689367616667e-03 1.203135699999999986e+01
4.860675469075747060e-03 3.858569000000000138e+00
4.880678248783877453e-03 -6.057553999999999661e+00
4.900681028492008713e-03 -7.329869999999999663e+00
4.920683808200139106e-03 -8.528798000000000101e+00
4.940686587908269499e-03 -6.603129000000000026e+00
4.960689367616400759e-03 -1.021692000000000045e+00
4.980692147324531152e-03 -8.380700000000000649e-02
5.000694927032661545e-03 3.075950000000000073e-01
5.020697706740792805e-03 7.573959999999999582e-01
5.040700486448923198e-03 -5.869459999999999678e-01
5.060703266157053591e-03 -3.967264999999999819e+00
5.080706045865183984e-03 -2.196092999999999851e+00
5.100708825573315244e-03 -1.960355999999999987e+00
5.120711605281445637e-03 -2.655562000000000200e+00
5.140714384989576030e-03 -1.881460000000000077e-01
5.160717164697707290e-03 -3.635104999999999809e+00
5.180719944405837683e-03 -5.009878999999999749e+00
5.200722724113968076e-03 -2.401008000000000031e+00
5.220725503822098469e-03 -3.270306999999999853e+00
5.240728283530229729e-03 -2.385304999999999787e+00
5.260731063238360122e-03 9.300620000000000553e-01
5.280733842946490515e-03 3.272114999999999885e+00
5.300736622654621776e-03 3.402928000000000175e+00
5.320739402362752168e-03 5.544284000000000212e+00
5.340742182070882561e-03 2.886617000000000210e+00
5.360744961779013822e-03 -1.259505000000000097e+00
5.380747741487144215e-03 -8.265749999999999487e-01
5.400750521195274607e-03 -4.552162000000000042e+00
5.420753300903405000e-03 -8.736309000000000324e+00
5.440756080611536261e-03 -6.511118999999999879e+00
5.460758860319666654e-03 -5.722279999999999589e+00
5.480761640027797046e-03 -3.489433000000000007e+00
5.500764419735928307e-03 8.088520000000000154e-01
5.520767199444058700e-03 -2.917069999999999941e-01
5.540769979152189093e-03 -2.856065000000000076e+00
5.560772758860319485e-03 2.818990000000000107e-01
5.580775538568450746e-03 -4.348489999999999855e-01
5.600778318276581139e-03 -8.653129999999999988e-01
5.620781097984711532e-03 5.111470000000000180e-01
5.640783877692842792e-03 -1.210515000000000008e+00
5.660786657400973185e-03 -2.902913999999999994e+00
5.680789437109103578e-03 -1.318748000000000031e+00
5.700792216817233971e-03 -6.839520000000000044e-01
5.720794996525365231e-03 -6.606579999999999675e-01
5.740797776233495624e-03 -6.122600000000000264e-02
5.760800555941626017e-03 -6.253589999999999982e-01
5.780803335649757277e-03 -2.635965999999999809e+00
5.800806115357887670e-03 -2.241589999999999971e-01
5.820808895066018063e-03 7.996379999999999599e-01
5.840811674774149323e-03 -1.806896999999999975e+00
5.860814454482279716e-03 -5.001910000000000522e-01
5.880817234190410109e-03 -1.582775999999999961e+00
5.900820013898540502e-03 -3.469901999999999820e+00
5.920822793606671762e-03 -2.023102999999999874e+00
5.940825573314802155e-03 -3.671441999999999872e+00
5.960828353022932548e-03 -7.532060000000000421e+00
5.980831132731063808e-03 -6.334430000000000227e+00
6.000833912439194201e-03 -4.418103999999999587e+00
6.020836692147324594e-03 -1.568435000000000024e+00
6.040839471855454987e-03 2.238715000000000011e+00
6.060842251563586247e-03 4.765113999999999628e+00
6.080845031271716640e-03 3.428104999999999958e+00
6.100847810979847033e-03 3.197754000000000207e+00
6.120850590687978293e-03 2.318709999999999938e-01
6.140853370396108686e-03 -2.753541999999999934e+00
6.160856150104239079e-03 -2.579060000000000130e+00
6.180858929812370339e-03 -2.430401999999999951e+00
6.200861709520500732e-03 -3.556850999999999985e+00
6.220864489228631125e-03 -2.801039999999999974e+00
6.240867268936761518e-03 -1.827272000000000007e+00
6.260870048644892778e-03 -1.316087000000000007e+00
6.280872828353023171e-03 -6.165990000000000082e-01
6.300875608061153564e-03 -1.068800999999999890e+00
6.320878387769284824e-03 -2.436891000000000140e+00
6.340881167477415217e-03 -3.202954000000000079e+00
6.360883947185545610e-03 -4.193658000000000108e+00
6.380886726893676003e-03 -3.595070000000000210e+00
6.400889506601807263e-03 -7.919899999999999718e-01
6.420892286309937656e-03 9.102059999999999595e-01
6.440895066018068049e-03 2.399182000000000148e+00
6.460897845726199309e-03 3.251351000000000102e+00
6.480900625434329702e-03 8.632269999999999666e-01
6.500903405142460095e-03 -1.924279000000000073e+00
6.520906184850591356e-03 -2.049771999999999927e+00
6.540908964558721748e-03 -2.383099000000000078e+00
6.560911744266852141e-03 -2.338651000000000035e+00
6.580914523974982534e-03 1.341499999999999915e-01
6.600917303683113795e-03 1.455975999999999937e+00
6.620920083391244187e-03 7.356580000000000341e-01
6.640922863099374580e-03 -7.537199999999999456e-02
6.660925642807505841e-03 -3.159155000000000157e+00
6.680928422515636234e-03 -6.166954999999999742e+00
6.700931202223766626e-03 -5.501857000000000220e+00
6.720933981931897019e-03 -3.809848000000000123e+00
6.740936761640028280e-03 -2.547914000000000012e+00
6.760939541348158673e-03 1.893707000000000029e+00
6.780942321056289065e-03 3.509602999999999806e+00
6.800945100764420326e-03 5.964099999999999957e-01
6.820947880472550719e-03 9.612600000000000311e-02
6.840950660180681112e-03 -2.386862999999999957e+00
6.860953439888811504e-03 -4.729499999999999815e+00
6.880956219596942765e-03 -2.317172999999999927e+00
6.900958999305073158e-03 -4.991530000000000133e-01
6.920961779013203551e-03 -3.418649999999999745e-01
6.940964558721334811e-03 6.437129999999999797e-01
6.960967338429465204e-03 1.093514000000000097e+00
6.980970118137595597e-03 -3.650400000000000172e-02
7.000972897845726857e-03 -1.570966000000000085e+00
7.020975677553857250e-03 -3.134886999999999979e+00
7.040978457261987643e-03 -4.560208000000000261e+00
7.060981236970118036e-03 -2.898826000000000125e+00
7.080984016678249296e-03 -1.412329999999999974e-01
7.100986796386379689e-03 1.489133000000000040e+00
7.120989576094510082e-03 2.559064999999999923e+00
7.140992355802641342e-03 4.831810000000000271e-01
7.160995135510771735e-03 -2.567120000000000068e+00
7.180997915218902128e-03 -4.515111000000000097e+00
7.201000694927032521e-03 -5.796901000000000082e+00
7.221003474635163781e-03 -5.676144999999999996e+00
7.241006254343294174e-03 -3.656908000000000047e+00
7.261009034051424567e-03 -1.201106999999999925e+00
7.281011813759555827e-03 1.345018000000000047e+00
7.301014593467686220e-03 3.678180999999999923e+00
7.321017373175816613e-03 2.732899000000000189e+00
7.341020152883947873e-03 2.650290000000000146e-01
7.361022932592078266e-03 -2.046930000000000138e-01
7.381025712300208659e-03 -1.789442999999999895e+00
7.401028492008339052e-03 -2.617926999999999893e+00
7.421031271716470312e-03 -8.689470000000000249e-01
7.441034051424600705e-03 -1.882881000000000027e+00
7.461036831132731098e-03 -4.049737000000000364e+00
7.481039610840862358e-03 -3.281013999999999875e+00
7.501042390548992751e-03 -2.467776999999999887e+00
7.521045170257123144e-03 -2.008763000000000076e+00
7.541047949965253537e-03 9.378999999999999837e-02
7.561050729673384797e-03 3.108389999999999764e-01
7.581053509381515190e-03 -1.157113000000000058e+00
7.601056289089645583e-03 -1.280723999999999974e+00
7.621059068797776843e-03 -1.683934999999999960e+00
7.641061848505907236e-03 -2.781184999999999796e+00
7.661064628214037629e-03 -1.746097999999999928e+00
7.681067407922168022e-03 -8.745920000000000361e-01
7.701070187630299282e-03 -1.078079999999999927e+00
7.721072967338429675e-03 1.122829999999999939e-01
7.741075747046560068e-03 1.085013000000000005e+00
7.761078526754691329e-03 -3.939050000000000051e-01
7.781081306462821721e-03 -1.189102000000000103e+00
7.801084086170952114e-03 -1.568759999999999932e+00
7.821086865879083375e-03 -2.717400000000000038e+00
7.841089645587212900e-03 -2.026996000000000020e+00
7.861092425295344160e-03 -3.259029999999999982e-01
7.881095205003475421e-03 -2.566030000000000255e-01
