# time(s), 	 	 acceleration(g)
0.000000000000000000e+00 6.171552000000000149e+00
2.000277970813059281e-05 6.399436999999999820e+00
4.000555941626118562e-05 6.635952999999999768e+00
6.000833912439177504e-05 6.897903999999999591e+00
8.001111883252237124e-05 7.157259999999999955e+00
1.000138985406529674e-04 7.439066999999999652e+00
1.200166782487835501e-04 7.728983999999999632e+00
1.400194579569141598e-04 8.066788999999999987e+00
1.600222376650447425e-04 8.418091000000000435e+00
1.800250173731753251e-04 8.789377999999999247e+00
2.000277970813059349e-04 9.183828999999999354e+00
2.200305767894365175e-04 9.617407999999999291e+00
2.400333564975671002e-04 1.003904799999999931e+01
2.600361362056977099e-04 1.057592799999999933e+01
2.800389159138283197e-04 1.111170500000000061e+01
3.000416956219588752e-04 1.170581600000000044e+01
3.200444753300894850e-04 1.239394899999999922e+01
3.400472550382200947e-04 1.316027099999999983e+01
3.600500347463506503e-04 1.401380299999999934e+01
3.800528144544812600e-04 1.501365599999999922e+01
4.000555941626118698e-04 1.606288800000000094e+01
4.200583738707424253e-04 1.725364099999999823e+01
4.400611535788730351e-04 1.865761399999999881e+01
4.600639332870036448e-04 2.035306200000000132e+01
4.800667129951342003e-04 2.201107000000000014e+01
5.000694927032648101e-04 2.440645999999999916e+01
5.200722724113954198e-04 2.728253799999999885e+01
5.400750521195260296e-04 3.073631100000000060e+01
5.600778318276566393e-04 3.592264699999999777e+01
5.800806115357871407e-04 4.357620399999999705e+01
6.000833912439177504e-04 5.574217500000000314e+01
6.200861709520483602e-04 7.671929799999999489e+01
6.400889506601789699e-04 1.086875359999999944e+02
6.600917303683095797e-04 1.563135420000000124e+02
6.800945100764401894e-04 2.185822789999999998e+02
7.000972897845707992e-04 2.939042590000000246e+02
7.201000694927013005e-04 3.750452940000000126e+02
7.401028492008319103e-04 4.486088209999999776e+02
7.601056289089625200e-04 5.000042119999999954e+02
7.801084086170931298e-04 5.183639640000000099e+02
8.001111883252237395e-04 5.019427289999999857e+02
8.201139680333543493e-04 4.615015329999999949e+02
8.401167477414848506e-04 4.107287380000000212e+02
8.601195274496154604e-04 3.599275220000000104e+02
8.801223071577460701e-04 3.108937789999999950e+02
9.001250868658766799e-04 2.679494789999999966e+02
9.201278665740072896e-04 2.237440229999999985e+02
9.401306462821378994e-04 1.726347849999999937e+02
9.601334259902684007e-04 1.182009019999999992e+02
9.801362056983990104e-04 6.920797399999999300e+01
1.000138985406529620e-03 2.872181000000000139e+01
1.020141765114660230e-03 1.395305999999999935e+00
1.040144544822790840e-03 -9.908243999999999829e+00
1.060147324530921449e-03 -1.027959599999999973e+01
1.080150104239052059e-03 2.521364999999999856e+00
1.100152883947182669e-03 2.701578500000000105e+01
1.120155663655313279e-03 4.812897699999999901e+01
1.140158443363443888e-03 6.939919799999999839e+01
1.160161223071574281e-03 7.379228299999999763e+01
1.180164002779704891e-03 6.318809199999999748e+01
1.200166782487835501e-03 4.222440100000000029e+01
1.220169562195966111e-03 5.623966000000000243e+00
1.240172341904096720e-03 -1.605712300000000070e+01
1.260175121612227330e-03 -4.145490800000000320e+01
1.280177901320357940e-03 -5.052132799999999690e+01
1.300180681028488550e-03 -3.939018500000000245e+01
1.320183460736619159e-03 -2.335736699999999999e+01
1.340186240444749769e-03 -3.729321999999999804e+00
1.360189020152880379e-03 1.906919600000000159e+01
1.380191799861010989e-03 2.591133299999999906e+01
1.400194579569141598e-03 3.739968300000000312e+01
1.420197359277271991e-03 1.782497599999999949e+01
1.440200138985402601e-03 9.598202000000000567e+00
1.460202918693533211e-03 1.138137799999999977e+01
1.480205698401663821e-03 -2.858206000000000024e+00
1.500208478109794430e-03 7.193985999999999770e+00
1.520211257817925040e-03 8.358069999999999666e+00
1.540214037526055650e-03 1.313522500000000015e+01
1.560216817234186260e-03 1.919566199999999867e+01
1.580219596942316869e-03 1.281305799999999984e+01
1.600222376650447479e-03 9.912127999999999162e+00
1.620225156358578089e-03 -4.285668000000000255e+00
1.640227936066708699e-03 -2.367461000000000038e+00
1.660230715774839308e-03 8.775036999999999310e+00
1.680233495482969701e-03 4.045639999999999681e+00
1.700236275191100311e-03 7.365548999999999680e+00
1.720239054899230921e-03 5.424695999999999962e+00
1.740241834607361530e-03 -1.206167999999999907e+00
1.760244614315492140e-03 -1.406864200000000054e+01
1.780247394023622750e-03 -1.768709899999999990e+01
1.800250173731753360e-03 -3.289006899999999689e+01
1.820252953439883969e-03 -3.813383100000000070e+01
1.840255733148014579e-03 -2.003460300000000061e+01
1.860258512856145189e-03 -1.477877200000000002e+01
1.880261292564275799e-03 1.283992100000000036e+01
1.900264072272406408e-03 3.183940000000000126e+01
1.920266851980536801e-03 3.579118400000000122e+01
1.940269631688667411e-03 5.339759099999999847e+01
1.960272411396798021e-03 3.232871699999999748e+01
1.980275191104928847e-03 2.674702100000000016e+01
2.000277970813059240e-03 9.101551999999999865e+00
2.020280750521190067e-03 -1.400440299999999993e+01
2.040283530229320460e-03 -1.533511799999999958e+01
2.060286309937450853e-03 -2.640383999999999887e+01
2.080289089645581679e-03 -2.455032599999999832e+01
2.100291869353712072e-03 -1.592144300000000001e+01
2.120294649061842899e-03 -1.424987299999999912e+01
2.140297428769973292e-03 -2.445260999999999907e+00
2.160300208478104118e-03 -8.900475000000000136e+00
2.180302988186234511e-03 1.287851999999999997e+00
2.200305767894365338e-03 -3.092449999999999921e+00
2.220308547602495731e-03 -8.853365999999999403e+00
2.240311327310626557e-03 -4.710487999999999786e+00
2.260314107018756950e-03 -9.687495999999999441e+00
2.280316886726887777e-03 2.475359999999999783e+00
2.300319666435018170e-03 -1.678160000000000096e+00
2.320322446143148563e-03 8.714950999999999226e+00
2.340325225851279389e-03 5.279802000000000106e+00
2.360328005559409782e-03 5.003770000000000273e+00
2.380330785267540609e-03 1.288423900000000089e+01
2.400333564975671002e-03 5.201019999999999532e-01
2.420336344683801828e-03 1.011048899999999939e+01
2.440339124391932221e-03 1.083178000000000019e+01
2.460341904100063048e-03 3.320716000000000001e+00
2.480344683808193441e-03 4.689129999999999576e+00
2.500347463516324267e-03 -8.134736000000000189e+00
2.520350243224454660e-03 -1.225749899999999926e+01
2.540353022932585487e-03 -1.770714900000000114e+01
2.560355802640715880e-03 -2.048420899999999989e+01
2.580358582348846273e-03 -1.989723599999999948e+01
2.600361362056977099e-03 -1.731010200000000054e+01
2.620364141765107492e-03 -8.550860000000000127e+00
2.640366921473238319e-03 -2.612735999999999947e+00
2.660369701181368712e-03 -9.684850000000000403e-01
2.680372480889499538e-03 5.573094000000000214e+00
2.700375260597629931e-03 -4.592327000000000048e+00
2.720378040305760758e-03 5.823289999999999855e-01
2.740380820013891151e-03 1.242230000000000001e-01
2.760383599722021977e-03 4.064002999999999588e+00
2.780386379430152370e-03 7.817295999999999800e+00
2.800389159138283197e-03 1.239381900000000059e+01
2.820391938846413590e-03 9.797665999999999542e+00
2.840394718554543983e-03 4.938753000000000171e+00
2.860397498262674809e-03 4.278970000000000273e-01
2.880400277970805202e-03 -1.525868999999999920e+00
2.900403057678936029e-03 -3.571969999999999867e+00
2.920405837387066422e-03 -1.086741199999999985e+01
2.940408617095197248e-03 -1.244632200000000033e+01
2.960411396803327641e-03 -9.100911999999999225e+00
2.980414176511458468e-03 -8.218375999999999237e+00
3.000416956219588861e-03 -7.047284999999999577e+00
3.020419735927719687e-03 -1.035103699999999982e+01
3.040422515635850080e-03 -1.789584299999999928e+01
3.060425295343980907e-03 -1.784542499999999876e+01
3.080428075052111300e-03 -1.092347499999999982e+01
3.100430854760241692e-03 -6.687418000000000085e+00
3.120433634468372519e-03 -3.977647000000000155e+00
3.140436414176502912e-03 8.370917000000000385e+00
3.160439193884633739e-03 1.518761899999999976e+01
3.180441973592764131e-03 1.257076700000000002e+01
3.200444753300894958e-03 1.454380500000000076e+01
3.220447533009025351e-03 8.176838999999999302e+00
3.240450312717156178e-03 -1.133882999999999974e+00
3.260453092425286570e-03 -2.276228999999999836e+00
3.280455872133417397e-03 -3.347977999999999899e+00
3.300458651841547790e-03 -8.371057000000000414e+00
3.320461431549678617e-03 -3.453745000000000065e+00
3.340464211257809009e-03 4.119546999999999848e+00
3.360466990965939402e-03 -5.360596000000000139e+00
3.380469770674070229e-03 -6.769111999999999796e+00
3.400472550382200622e-03 -8.931036999999999892e+00
3.420475330090331448e-03 -1.927022699999999844e+01
3.440478109798461841e-03 -1.882749899999999954e+01
3.460480889506592668e-03 -1.449086600000000047e+01
3.480483669214723061e-03 -1.210131499999999960e+01
3.500486448922853887e-03 -6.167993000000000059e+00
3.520489228630984280e-03 7.210143000000000413e+00
3.540492008339115107e-03 1.103260700000000050e+01
3.560494788047245500e-03 8.465977999999999781e+00
3.580497567755376326e-03 1.026193699999999964e+01
3.600500347463506719e-03 2.115753000000000217e+00
3.620503127171637112e-03 -4.171077000000000368e+00
3.640505906879767939e-03 -1.776140999999999970e+00
3.660508686587898332e-03 -6.436951999999999785e+00
3.680511466296029158e-03 -8.043839999999999879e-01
3.700514246004159551e-03 4.245493999999999879e+00
3.720517025712290378e-03 3.027423999999999893e+00
3.740519805420420771e-03 7.512309999999999821e-01
3.760522585128551597e-03 4.988190000000000124e-01
3.780525364836681990e-03 -3.377566999999999986e+00
3.800528144544812817e-03 -7.200289999999999857e+00
3.820530924252943210e-03 -6.509756000000000320e+00
3.840533703961073603e-03 -1.235022400000000076e+01
3.860536483669204429e-03 -1.265324900000000063e+01
3.880539263377334822e-03 -8.766026999999999347e+00
3.900542043085465649e-03 -1.111969500000000011e+01
3.920544822793596042e-03 -6.699876999999999860e+00
3.940547602501726435e-03 -1.740258000000000083e+00
3.960550382209857695e-03 2.315477000000000007e+00
3.980553161917988088e-03 6.375753999999999699e+00
4.000555941626118481e-03 1.228662500000000080e+01
4.020558721334248874e-03 1.168102900000000055e+01
4.040561501042380134e-03 7.055581000000000103e+00
4.060564280750510527e-03 6.418643999999999572e+00
4.080567060458640920e-03 -8.171019999999999950e-01
4.100569840166771313e-03 -3.928008000000000166e+00
4.120572619874901706e-03 -1.450339999999999963e+00
4.140575399583032966e-03 -6.285050000000000026e+00
4.160578179291163359e-03 -5.590104000000000184e+00
4.180580958999293752e-03 -5.319716999999999807e+00
4.200583738707424145e-03 -7.488780000000000214e+00
4.220586518415555405e-03 -5.678156000000000425e+00
4.240589298123685798e-03 -4.217277000000000164e+00
4.260592077831816191e-03 -5.450985000000000191e+00
4.280594857539946584e-03 -5.008257000000000403e+00
4.300597637248077844e-03 -1.202089999999999964e-01
4.320600416956208237e-03 -9.449300000000000477e-01
4.340603196664338630e-03 -2.356106000000000034e+00
4.360605976372469023e-03 3.348486999999999991e+00
4.380608756080599415e-03 4.649469999999999992e-01
4.400611535788730676e-03 1.434172999999999920e+00
4.420614315496861069e-03 4.471301999999999666e+00
4.440617095204991462e-03 4.677126000000000339e+00
4.460619874913121854e-03 2.089084000000000163e+00
4.480622654621253115e-03 1.276885999999999965e+00
4.500625434329383508e-03 -1.785160000000000080e+00
4.520628214037513901e-03 -6.336375999999999564e+00
4.540630993745644294e-03 -4.125265999999999877e+00
4.560633773453775554e-03 -3.518580000000000041e-01
4.580636553161905947e-03 -8.163230000000000208e-01
4.600639332870036340e-03 5.242945999999999884e+00
4.620642112578166733e-03 7.191119999999999735e-01
4.640644892286297125e-03 -5.486619999999999830e-01
4.660647671994428386e-03 -5.979119999999999990e-01
4.680650451702558779e-03 -9.225367000000000317e+00
4.700653231410689172e-03 -1.304971199999999953e+01
4.720656011118819564e-03 -1.519204099999999968e+01
4.740658790826950825e-03 -9.214010999999999285e+00
4.760661570535081218e-03 1.055814000000000030e+00
4.780664350243211611e-03 7.760390000000000121e+00
4.800667129951342003e-03 1.241769799999999968e+01
4.820669909659473264e-03 1.048599399999999982e+01
4.840672689367603657e-03 7.216696999999999917e+00
4.860675469075734050e-03 1.139000000000000012e+00
4.880678248783864442e-03 -7.433754999999999669e+00
4.900681028491994835e-03 -7.745345999999999620e+00
4.920683808200126096e-03 -6.635703000000000351e+00
4.940686587908256489e-03 -4.202417999999999765e+00
4.960689367616386881e-03 9.220159999999999467e-01
4.980692147324517274e-03 2.249550999999999856e+00
5.000694927032648535e-03 -1.374227000000000087e+00
5.020697706740778928e-03 -2.057882999999999907e+00
5.040700486448909320e-03 -2.797861000000000153e+00
5.060703266157039713e-03 -4.603941999999999979e+00
5.080706045865170974e-03 -1.143615999999999966e+00
5.100708825573301367e-03 -4.798899999999999694e-02
5.120711605281431759e-03 -1.560518999999999989e+00
5.140714384989562152e-03 -1.890277999999999903e+00
5.160717164697692545e-03 -2.919525000000000148e+00
5.180719944405823806e-03 -2.348254999999999981e+00
5.200722724113954198e-03 -1.133882999999999974e+00
5.220725503822084591e-03 -2.240866000000000025e+00
5.240728283530214984e-03 -3.183488000000000095e+00
5.260731063238346245e-03 -1.565320999999999962e+00
5.280733842946476637e-03 2.200626000000000193e+00
5.300736622654607030e-03 4.722546999999999606e+00
5.320739402362737423e-03 3.194834000000000174e+00
5.340742182070868684e-03 1.527611999999999970e+00
5.360744961778999076e-03 -1.972944999999999949e+00
5.380747741487129469e-03 -2.457071000000000005e+00
5.400750521195259862e-03 -3.253956000000000071e+00
5.420753300903390255e-03 -6.859370000000000189e+00
5.440756080611521515e-03 -6.094409999999999883e+00
5.460758860319651908e-03 -4.559624000000000343e+00
5.480761640027782301e-03 -1.914285999999999932e+00
5.500764419735912694e-03 2.066113999999999784e+00
5.520767199444043954e-03 -2.735500000000000084e-02
5.540769979152174347e-03 -1.991243000000000096e+00
5.560772758860304740e-03 -2.456551999999999847e+00
5.580775538568435133e-03 -3.562691000000000052e+00
5.600778318276566393e-03 -1.524831000000000047e+00
5.620781097984696786e-03 2.488720000000000099e-01
5.640783877692827179e-03 4.147239999999999815e-01
5.660786657400957572e-03 -1.081323999999999952e+00
5.680789437109087965e-03 -1.560778999999999916e+00
5.700792216817219225e-03 -4.376390000000000002e-01
5.720794996525349618e-03 -1.238429999999999948e-01
5.740797776233480011e-03 4.007740000000000191e-01
5.760800555941610404e-03 -8.586300000000000043e-01
5.780803335649741664e-03 -2.677754000000000190e+00
5.800806115357872057e-03 -1.465263999999999900e+00
5.820808895066002450e-03 -8.341669999999999918e-01
5.840811674774132843e-03 -2.931340000000000057e-01
5.860814454482264103e-03 3.599589999999999734e-01
5.880817234190394496e-03 -2.685799999999999965e+00
5.900820013898524889e-03 -4.368984000000000201e+00
5.920822793606655282e-03 -4.524454999999999671e+00
5.940825573314785675e-03 -5.799756000000000355e+00
5.960828353022916935e-03 -5.772114000000000189e+00
5.980831132731047328e-03 -3.941050000000000164e+00
6.000833912439177721e-03 -2.259228999999999932e+00
6.020836692147308114e-03 -1.403890000000000138e-01
6.040839471855439374e-03 3.048252999999999879e+00
6.060842251563569767e-03 5.344948999999999728e+00
6.080845031271700160e-03 3.578968000000000149e+00
6.100847810979830553e-03 1.127385000000000081e+00
6.120850590687961813e-03 -2.989539000000000168e+00
6.140853370396092206e-03 -4.093536000000000286e+00
6.160856150104222599e-03 -2.178703000000000056e+00
6.180858929812352992e-03 -1.309209000000000067e+00
6.200861709520483385e-03 -2.087016999999999900e+00
6.220864489228614645e-03 -2.793966999999999867e+00
6.240867268936745038e-03 -2.633370999999999906e+00
6.260870048644875431e-03 -2.054638000000000186e+00
6.280872828353005824e-03 -8.990550000000000486e-01
6.300875608061137084e-03 -4.796860000000000013e-01
6.320878387769267477e-03 -3.244352000000000125e+00
6.340881167477397870e-03 -4.709385000000000154e+00
6.360883947185528263e-03 -4.125396000000000285e+00
6.380886726893659523e-03 -1.638060000000000072e+00
6.400889506601789916e-03 1.795987000000000000e+00
6.420892286309920309e-03 3.451658999999999811e+00
6.440895066018050702e-03 2.944887000000000032e+00
6.460897845726181095e-03 4.359430000000000249e-01
6.480900625434312355e-03 -1.319851000000000107e+00
6.500903405142442748e-03 -2.135876999999999803e+00
6.520906184850573141e-03 -2.445781000000000205e+00
6.540908964558703534e-03 -2.206409999999999982e+00
6.560911744266834794e-03 -2.252740000000000187e+00
6.580914523974965187e-03 -4.596359999999999890e-01
6.600917303683095580e-03 1.781192000000000109e+00
6.620920083391225973e-03 8.019089999999999829e-01
6.640922863099357233e-03 -1.688153000000000015e+00
6.660925642807487626e-03 -4.846815999999999569e+00
6.680928422515618019e-03 -6.404702999999999591e+00
6.700931202223748412e-03 -4.224414999999999587e+00
6.720933981931878805e-03 -1.000798999999999994e+00
6.740936761640010065e-03 1.361434000000000033e+00
6.760939541348140458e-03 3.145258999999999805e+00
6.780942321056270851e-03 1.139000000000000012e+00
6.800945100764401244e-03 -1.182223999999999942e+00
6.820947880472532504e-03 -2.353186000000000000e+00
6.840950660180662897e-03 -4.352631999999999834e+00
6.860953439888793290e-03 -4.147327999999999903e+00
6.880956219596923683e-03 -2.073780000000000179e+00
6.900958999305054943e-03 -8.156740000000000101e-01
6.920961779013185336e-03 1.051530999999999993e+00
6.940964558721315729e-03 2.659316000000000013e+00
6.960967338429446122e-03 2.206984999999999975e+00
6.980970118137576515e-03 -3.333650000000000224e-01
7.000972897845707775e-03 -3.227676000000000212e+00
7.020975677553838168e-03 -4.582139999999999880e+00
7.040978457261968561e-03 -4.513228999999999935e+00
7.060981236970098954e-03 -1.773609999999999909e+00
7.080984016678230214e-03 6.363159999999999927e-01
7.100986796386360607e-03 1.131926999999999905e+00
7.120989576094491000e-03 8.849650000000000016e-01
7.140992355802621393e-03 -4.866289999999999782e-01
7.160995135510752653e-03 -2.633890000000000065e+00
7.180997915218883046e-03 -4.248228000000000115e+00
7.201000694927013439e-03 -4.843702000000000396e+00
7.221003474635143832e-03 -4.749419999999999753e+00
7.241006254343274225e-03 -2.789944000000000202e+00
7.261009034051405485e-03 -5.674900000000000083e-02
7.281011813759535878e-03 1.790796000000000054e+00
7.301014593467666271e-03 2.626028999999999947e+00
7.321017373175796664e-03 7.315709999999999713e-01
7.341020152883927924e-03 -9.355219999999999647e-01
7.361022932592058317e-03 -1.059261999999999926e+00
7.381025712300188710e-03 -1.449886000000000008e+00
7.401028492008319103e-03 -7.793369999999999465e-01
7.421031271716450363e-03 -7.658409999999999940e-01
7.441034051424580756e-03 -2.443185000000000162e+00
7.461036831132711149e-03 -2.860930999999999891e+00
7.481039610840841542e-03 -2.397050000000000125e+00
7.501042390548971935e-03 -2.022842999999999947e+00
7.521045170257103195e-03 -1.832786999999999944e+00
7.541047949965233588e-03 -1.305965000000000042e+00
7.561050729673363981e-03 -1.232318000000000024e+00
7.581053509381494374e-03 -1.723970999999999920e+00
7.601056289089625634e-03 -1.418739999999999890e+00
7.621059068797756027e-03 -1.286758000000000068e+00
7.641061848505886420e-03 -1.896247999999999934e+00
7.661064628214016813e-03 -9.599189999999999667e-01
7.681067407922147205e-03 -3.563999999999999946e-01
7.701070187630278466e-03 -5.548910000000000231e-01
7.721072967338408859e-03 -8.205500000000000294e-02
7.741075747046539252e-03 -3.177920000000000189e-01
7.761078526754669644e-03 -1.428212999999999955e+00
7.781081306462800905e-03 -1.516850000000000032e+00
7.801084086170931298e-03 -1.576027000000000067e+00
7.821086865879062558e-03 -1.468444000000000083e+00
7.841089645587192083e-03 -6.910250000000000004e-01
7.861092425295323344e-03 -3.793050000000000033e-01
