# time(s), 	 	 acceleration(g)
0.000000000000000000e+00 6.254933000000000298e+00
2.000277970813059281e-05 6.477821999999999747e+00
4.000555941626118562e-05 6.718943999999999583e+00
6.000833912439177504e-05 6.991406999999999705e+00
8.001111883252237124e-05 7.267439000000000426e+00
1.000138985406529674e-04 7.582987000000000144e+00
1.200166782487835501e-04 7.896264999999999645e+00
1.400194579569141598e-04 8.225828999999999169e+00
1.600222376650447425e-04 8.604706999999999439e+00
1.800250173731753251e-04 8.948546999999999585e+00
2.000277970813059349e-04 9.342674000000000589e+00
2.200305767894365175e-04 9.770673000000000386e+00
2.400333564975671002e-04 1.023487899999999939e+01
2.600361362056977099e-04 1.073535700000000048e+01
2.800389159138283197e-04 1.131305099999999975e+01
3.000416956219588752e-04 1.196990800000000021e+01
3.200444753300894850e-04 1.270904299999999942e+01
3.400472550382200947e-04 1.354752000000000045e+01
3.600500347463506503e-04 1.437645900000000054e+01
3.800528144544812600e-04 1.541174099999999925e+01
4.000555941626118698e-04 1.655103799999999836e+01
4.200583738707424253e-04 1.773510699999999929e+01
4.400611535788730351e-04 1.926074399999999898e+01
4.600639332870036448e-04 2.106494400000000056e+01
4.800667129951342003e-04 2.299710200000000171e+01
5.000694927032648101e-04 2.552343499999999921e+01
5.200722724113954198e-04 2.874607800000000069e+01
5.400750521195260296e-04 3.289135699999999929e+01
5.600778318276566393e-04 3.912076199999999915e+01
5.800806115357871407e-04 4.860324099999999703e+01
6.000833912439177504e-04 6.448785499999999615e+01
6.200861709520483602e-04 8.957119500000000301e+01
6.400889506601789699e-04 1.274779470000000003e+02
6.600917303683095797e-04 1.787051500000000033e+02
6.800945100764401894e-04 2.428455690000000118e+02
7.000972897845707992e-04 3.145663529999999923e+02
7.201000694927013005e-04 3.845999289999999746e+02
7.401028492008319103e-04 4.425341730000000098e+02
7.601056289089625200e-04 4.771606629999999996e+02
7.801084086170931298e-04 4.841295910000000049e+02
8.001111883252237395e-04 4.640165759999999864e+02
8.201139680333543493e-04 4.270637370000000033e+02
8.401167477414848506e-04 3.822401610000000005e+02
8.601195274496154604e-04 3.356480090000000018e+02
8.801223071577460701e-04 2.903499110000000201e+02
9.001250868658766799e-04 2.489662869999999941e+02
9.201278665740072896e-04 2.019560639999999978e+02
9.401306462821378994e-04 1.507873899999999878e+02
9.601334259902684007e-04 9.854495599999999911e+01
9.801362056983990104e-04 5.545933000000000135e+01
1.000138985406529620e-03 2.164717999999999876e+01
1.020141765114660230e-03 1.042770999999999892e+00
1.040144544822790840e-03 -6.201344999999999885e+00
1.060147324530921449e-03 -1.071851000000000109e+00
1.080150104239052059e-03 1.360630899999999954e+01
1.100152883947182669e-03 3.555544799999999839e+01
1.120155663655313279e-03 5.439783299999999855e+01
1.140158443363443888e-03 6.732480599999999527e+01
1.160161223071574281e-03 6.365100000000000335e+01
1.180164002779704891e-03 4.999209499999999906e+01
1.200166782487835501e-03 2.332906699999999844e+01
1.220169562195966111e-03 -5.666671000000000014e+00
1.240172341904096720e-03 -2.419013400000000047e+01
1.260175121612227330e-03 -3.742227299999999701e+01
1.280177901320357940e-03 -3.571631399999999701e+01
1.300180681028488550e-03 -2.300340500000000077e+01
1.320183460736619159e-03 -7.391384000000000398e+00
1.340186240444749769e-03 8.917790000000000106e+00
1.360189020152880379e-03 2.248630599999999902e+01
1.380191799861010989e-03 2.705497700000000094e+01
1.400194579569141598e-03 1.625365800000000149e+01
1.420197359277271991e-03 5.557066999999999979e+00
1.440200138985402601e-03 1.707219999999999960e+00
1.460202918693533211e-03 1.238731999999999944e+00
1.480205698401663821e-03 1.901299000000000072e+00
1.500208478109794430e-03 6.563343999999999845e+00
1.520211257817925040e-03 1.843440000000000012e+01
1.540214037526055650e-03 1.766191299999999842e+01
1.560216817234186260e-03 2.267019799999999918e+01
1.580219596942316869e-03 1.808893899999999988e+01
1.600222376650447479e-03 2.790258999999999823e+00
1.620225156358578089e-03 5.574120000000000186e-01
1.640227936066708699e-03 2.032826000000000022e+00
1.660230715774839308e-03 -5.250430000000000375e-01
1.680233495482969701e-03 4.271448999999999607e+00
1.700236275191100311e-03 3.434918000000000138e+00
1.720239054899230921e-03 5.026869999999999727e+00
1.740241834607361530e-03 -3.841124000000000205e+00
1.760244614315492140e-03 -1.139105499999999971e+01
1.780247394023622750e-03 -2.188299100000000053e+01
1.800250173731753360e-03 -3.092468900000000076e+01
1.820252953439883969e-03 -2.709339999999999904e+01
1.840255733148014579e-03 -2.046422400000000152e+01
1.860258512856145189e-03 -6.451811000000000185e+00
1.880261292564275799e-03 1.550212999999999930e+01
1.900264072272406408e-03 2.722530700000000081e+01
1.920266851980536801e-03 3.634889299999999679e+01
1.940269631688667411e-03 4.232465200000000038e+01
1.960272411396798021e-03 2.884503199999999978e+01
1.980275191104928847e-03 1.964299700000000115e+01
2.000277970813059240e-03 5.419374999999999609e+00
2.020280750521190067e-03 -1.137924600000000019e+01
2.040283530229320460e-03 -1.697644999999999982e+01
2.060286309937450853e-03 -1.870849499999999921e+01
2.080289089645581679e-03 -1.799375799999999970e+01
2.100291869353712072e-03 -1.237092299999999945e+01
2.120294649061842899e-03 -8.718334999999999724e+00
2.140297428769973292e-03 -4.913001999999999647e+00
2.160300208478104118e-03 -5.491668999999999912e+00
2.180302988186234511e-03 -3.719393999999999867e+00
2.200305767894365338e-03 -8.044606999999999175e+00
2.220308547602495731e-03 -1.174871599999999994e+01
2.240311327310626557e-03 -7.093938999999999773e+00
2.260314107018756950e-03 -3.708104000000000067e+00
2.280316886726887777e-03 -2.470372999999999930e+00
2.300319666435018170e-03 2.560621999999999954e+00
2.320322446143148563e-03 6.404174000000000255e+00
2.340325225851279389e-03 7.345239000000000296e+00
2.360328005559409782e-03 9.698128000000000526e+00
2.380330785267540609e-03 1.103825199999999995e+01
2.400333564975671002e-03 5.735508000000000273e+00
2.420336344683801828e-03 8.175995000000000346e+00
2.440339124391932221e-03 7.869531000000000276e+00
2.460341904100063048e-03 1.159049999999999914e+00
2.480344683808193441e-03 -3.042098000000000191e+00
2.500347463516324267e-03 -8.453269000000000588e+00
2.520350243224454660e-03 -1.385950899999999919e+01
2.540353022932585487e-03 -1.534757699999999936e+01
2.560355802640715880e-03 -1.612038799999999839e+01
2.580358582348846273e-03 -1.143907199999999946e+01
2.600361362056977099e-03 -1.206861199999999990e+01
2.620364141765107492e-03 -7.668258999999999936e+00
2.640366921473238319e-03 -4.929743000000000208e+00
2.660369701181368712e-03 -3.986406999999999812e+00
2.680372480889499538e-03 -1.521651000000000087e+00
2.700375260597629931e-03 -5.100331999999999866e+00
2.720378040305760758e-03 -3.312549000000000188e+00
2.740380820013891151e-03 2.091600000000000126e-01
2.760383599722021977e-03 5.061325000000000074e+00
2.780386379430152370e-03 1.462497899999999973e+01
2.800389159138283197e-03 1.418043399999999998e+01
2.820391938846413590e-03 9.113751000000000602e+00
2.840394718554543983e-03 3.441146999999999956e+00
2.860397498262674809e-03 1.595209999999999961e-01
2.880400277970805202e-03 -1.431068000000000007e+00
2.900403057678936029e-03 -5.950034999999999741e+00
2.920405837387066422e-03 -1.129158299999999926e+01
2.940408617095197248e-03 -1.133752299999999913e+01
2.960411396803327641e-03 -8.071989999999999554e+00
2.980414176511458468e-03 -8.410702999999999818e+00
3.000416956219588861e-03 -7.719000999999999557e+00
3.020419735927719687e-03 -1.449105999999999916e+01
3.040422515635850080e-03 -1.751320000000000121e+01
3.060425295343980907e-03 -1.245190299999999972e+01
3.080428075052111300e-03 -1.074354199999999970e+01
3.100430854760241692e-03 -5.769193999999999711e+00
3.120433634468372519e-03 2.633751000000000175e+00
3.140436414176502912e-03 8.720985999999999905e+00
3.160439193884633739e-03 1.278269000000000055e+01
3.180441973592764131e-03 1.150154900000000069e+01
3.200444753300894958e-03 8.860689000000000703e+00
3.220447533009025351e-03 3.199310999999999794e+00
3.240450312717156178e-03 -5.594980000000000508e-01
3.260453092425286570e-03 -3.569439000000000028e+00
3.280455872133417397e-03 -6.039514999999999745e+00
3.300458651841547790e-03 -3.158701000000000203e+00
3.320461431549678617e-03 2.426629000000000147e+00
3.340464211257809009e-03 2.274468000000000156e+00
3.360466990965939402e-03 -2.389653000000000027e+00
3.380469770674070229e-03 -5.825192000000000370e+00
3.400472550382200622e-03 -1.375374300000000005e+01
3.420475330090331448e-03 -1.800173900000000060e+01
3.440478109798461841e-03 -1.779967900000000114e+01
3.460480889506592668e-03 -1.649271299999999840e+01
3.480483669214723061e-03 -1.210481900000000088e+01
3.500486448922853887e-03 -4.283722000000000030e+00
3.520489228630984280e-03 4.664731999999999879e+00
3.540492008339115107e-03 8.038952000000000098e+00
3.560494788047245500e-03 1.006896099999999983e+01
3.580497567755376326e-03 8.662846999999999298e+00
3.600500347463506719e-03 3.186787999999999954e+00
3.620503127171637112e-03 9.265579999999999927e-01
3.640505906879767939e-03 -3.287373000000000101e+00
3.660508686587898332e-03 -2.773203000000000085e+00
3.680511466296029158e-03 -1.277803999999999940e+00
3.700514246004159551e-03 -2.484843000000000135e+00
3.720517025712290378e-03 -1.184560000000000057e+00
3.740519805420420771e-03 6.477359999999999784e-01
3.760522585128551597e-03 -1.561687000000000047e+00
3.780525364836681990e-03 2.009849999999999970e-01
3.800528144544812817e-03 -9.735460000000000225e-01
3.820530924252943210e-03 -6.117315999999999754e+00
3.840533703961073603e-03 -7.922748000000000346e+00
3.860536483669204429e-03 -9.204862000000000322e+00
3.880539263377334822e-03 -1.243931500000000057e+01
3.900542043085465649e-03 -1.251614099999999929e+01
3.920544822793596042e-03 -1.030503200000000064e+01
3.940547602501726435e-03 -7.537380999999999887e+00
3.960550382209857695e-03 3.031179999999999986e-01
3.980553161917988088e-03 5.604305000000000092e+00
4.000555941626118481e-03 1.315611799999999931e+01
4.020558721334248874e-03 1.209105300000000049e+01
4.040561501042380134e-03 9.556153999999999371e+00
4.060564280750510527e-03 8.298956999999999695e+00
4.080567060458640920e-03 5.236709999999999976e-01
4.100569840166771313e-03 -8.014639999999999542e-01
4.120572619874901706e-03 -3.565805000000000113e+00
4.140575399583032966e-03 -7.549968999999999930e+00
4.160578179291163359e-03 -6.914913999999999561e+00
4.180580958999293752e-03 -7.255314000000000263e+00
4.200583738707424145e-03 -6.144504000000000410e+00
4.220586518415555405e-03 -5.688992999999999967e+00
4.240589298123685798e-03 -6.821280999999999928e+00
4.260592077831816191e-03 -4.339006000000000363e+00
4.280594857539946584e-03 -3.062732000000000010e+00
4.300597637248077844e-03 -2.185386999999999968e+00
4.320600416956208237e-03 5.114069999999999450e-01
4.340603196664338630e-03 -9.100999999999999368e-02
4.360605976372469023e-03 1.851401000000000074e+00
4.380608756080599415e-03 2.214512000000000036e+00
4.400611535788730676e-03 3.238503000000000132e+00
4.420614315496861069e-03 3.069601000000000024e+00
4.440617095204991462e-03 2.617722999999999800e+00
4.460619874913121854e-03 1.659203999999999901e+00
4.480622654621253115e-03 -3.487616000000000049e+00
4.500625434329383508e-03 -4.013659999999999783e+00
4.520628214037513901e-03 -2.392961999999999811e+00
4.540630993745644294e-03 -2.742446999999999857e+00
4.560633773453775554e-03 1.609304999999999986e+00
4.580636553161905947e-03 2.288612999999999786e+00
4.600639332870036340e-03 9.846319999999999517e-01
4.620642112578166733e-03 -5.875999999999999973e-02
4.640644892286297125e-03 -3.501177000000000206e+00
4.660647671994428386e-03 -5.006310000000000038e+00
4.680650451702558779e-03 -1.092191799999999979e+01
4.700653231410689172e-03 -1.000005999999999950e+01
4.720656011118819564e-03 -8.184179999999999566e+00
4.740658790826950825e-03 -2.138538000000000050e+00
4.760661570535081218e-03 6.793889000000000067e+00
4.780664350243211611e-03 6.539983999999999575e+00
4.800667129951342003e-03 6.963051000000000101e+00
4.820669909659473264e-03 8.010272000000000503e+00
4.840672689367603657e-03 4.402900000000000147e-01
4.860675469075734050e-03 -2.132568000000000019e+00
4.880678248783864442e-03 -7.195941999999999616e+00
4.900681028491994835e-03 -8.659677000000000291e+00
4.920683808200126096e-03 -6.853335999999999650e+00
4.940686587908256489e-03 -1.082233000000000001e+00
4.960689367616386881e-03 2.140540000000000109e+00
4.980692147324517274e-03 2.349282999999999788e+00
5.000694927032648535e-03 8.472650000000000459e-01
5.020697706740778928e-03 -1.570381999999999945e+00
5.040700486448909320e-03 -1.900141000000000080e+00
5.060703266157039713e-03 1.183578000000000019e+00
5.080706045865170974e-03 -9.522629999999999706e-01
5.100708825573301367e-03 -2.326776999999999873e+00
5.120711605281431759e-03 -2.544474999999999820e+00
5.140714384989562152e-03 -5.771530000000000271e+00
5.160717164697692545e-03 -4.118777999999999828e+00
5.180719944405823806e-03 -1.788793999999999995e+00
5.200722724113954198e-03 -2.036598999999999826e+00
5.220725503822084591e-03 -2.019080000000000208e+00
5.240728283530214984e-03 -1.436584000000000083e+00
5.260731063238346245e-03 1.939120000000000010e-01
5.280733842946476637e-03 2.862674000000000163e+00
5.300736622654607030e-03 3.218192999999999859e+00
5.320739402362737423e-03 1.121933999999999987e+00
5.340742182070868684e-03 -2.769051000000000151e+00
5.360744961778999076e-03 -7.710320000000000507e-01
5.380747741487129469e-03 -1.716963000000000017e+00
5.400750521195259862e-03 -1.799434999999999896e+00
5.420753300903390255e-03 -1.163861000000000034e+00
5.440756080611521515e-03 -3.437781999999999893e+00
5.460758860319651908e-03 -4.319994000000000334e+00
5.480761640027782301e-03 -1.189686000000000021e+00
5.500764419735912694e-03 -7.681769999999999987e-01
5.520767199444043954e-03 -3.320075999999999805e+00
5.540769979152174347e-03 -4.650466999999999906e+00
5.560772758860304740e-03 -4.384426999999999630e+00
5.580775538568435133e-03 -5.061399999999999899e+00
5.600778318276566393e-03 -4.765719999999999956e-01
5.620781097984696786e-03 1.907073999999999936e+00
5.640783877692827179e-03 2.202637000000000178e+00
5.660786657400957572e-03 2.360379000000000005e+00
5.680789437109087965e-03 4.822719999999999785e-01
5.700792216817219225e-03 -4.022109999999999852e-01
5.720794996525349618e-03 -1.159909999999999969e-01
5.740797776233480011e-03 -9.394150000000000000e-01
5.760800555941610404e-03 -2.105315000000000047e+00
5.780803335649741664e-03 -3.616092999999999780e+00
5.800806115357872057e-03 -2.977405000000000079e+00
5.820808895066002450e-03 -2.382905000000000051e+00
5.840811674774132843e-03 -1.126940000000000053e+00
5.860814454482264103e-03 -4.044170000000000265e-01
5.880817234190394496e-03 -3.468538999999999817e+00
5.900820013898524889e-03 -3.801217999999999986e+00
5.920822793606655282e-03 -4.092173999999999978e+00
5.940825573314785675e-03 -3.332209999999999894e+00
5.960828353022916935e-03 -1.297658999999999896e+00
5.980831132731047328e-03 -1.411342000000000096e+00
6.000833912439177721e-03 -2.668798999999999921e+00
6.020836692147308114e-03 -9.858740000000000281e-01
6.040839471855439374e-03 3.798150000000000137e-01
6.060842251563569767e-03 2.541155999999999970e+00
6.080845031271700160e-03 2.748276999999999859e+00
6.100847810979830553e-03 -7.256749999999999590e-01
6.120850590687961813e-03 -2.926597999999999811e+00
6.140853370396092206e-03 -2.258903999999999801e+00
6.160856150104222599e-03 -1.063674999999999926e+00
6.180858929812352992e-03 -8.022430000000000394e-01
6.200861709520483385e-03 -1.811959000000000097e+00
6.220864489228614645e-03 -3.347134000000000054e+00
6.240867268936745038e-03 -4.055317999999999756e+00
6.260870048644875431e-03 -1.848619999999999930e+00
6.280872828353005824e-03 -7.187970000000000192e-01
6.300875608061137084e-03 -8.549959999999999782e-01
6.320878387769267477e-03 -9.076199999999999823e-01
6.340881167477397870e-03 -2.847434999999999938e+00
6.360883947185528263e-03 -2.503919999999999924e+00
6.380886726893659523e-03 1.274600000000000039e-02
6.400889506601789916e-03 5.792789999999999884e-01
6.420892286309920309e-03 4.041480000000000072e-01
6.440895066018050702e-03 6.316299999999999693e-02
6.460897845726181095e-03 -1.899750999999999967e+00
6.480900625434312355e-03 -2.344879999999999853e+00
6.500903405142442748e-03 -1.177097999999999978e+00
6.520906184850573141e-03 -9.394799999999999818e-01
6.540908964558703534e-03 -1.335358999999999963e+00
6.560911744266834794e-03 -6.779180000000000206e-01
6.580914523974965187e-03 5.995890000000000386e-01
6.600917303683095580e-03 1.404843999999999982e+00
6.620920083391225973e-03 4.160220000000000029e-01
6.640922863099357233e-03 -2.517806000000000211e+00
6.660925642807487626e-03 -4.563517000000000046e+00
6.680928422515618019e-03 -5.149321999999999733e+00
6.700931202223748412e-03 -3.388856999999999786e+00
6.720933981931878805e-03 -9.091120000000000312e-01
6.740936761640010065e-03 6.858250000000000179e-01
6.760939541348140458e-03 1.053608000000000100e+00
6.780942321056270851e-03 -8.692710000000000159e-01
6.800945100764401244e-03 -2.133801000000000059e+00
6.820947880472532504e-03 -2.496588000000000029e+00
6.840950660180662897e-03 -2.831992000000000065e+00
6.860953439888793290e-03 -1.639617000000000102e+00
6.880956219596923683e-03 -7.616230000000000500e-01
6.900958999305054943e-03 -1.664799999999999960e-02
6.920961779013185336e-03 1.583090000000000108e+00
6.940964558721315729e-03 1.443062999999999985e+00
6.960967338429446122e-03 -2.229400000000000132e-02
6.980970118137576515e-03 -1.893002999999999991e+00
7.000972897845707775e-03 -3.737627999999999950e+00
7.020975677553838168e-03 -3.900819999999999954e+00
7.040978457261968561e-03 -1.933623000000000092e+00
7.060981236970098954e-03 -3.935799999999999854e-01
7.080984016678230214e-03 5.842699999999999977e-02
7.100986796386360607e-03 -2.715920000000000001e-01
7.120989576094491000e-03 -8.191779999999999617e-01
7.140992355802621393e-03 -1.215640999999999972e+00
7.160995135510752653e-03 -1.791519000000000084e+00
7.180997915218883046e-03 -3.581833000000000045e+00
7.201000694927013439e-03 -3.897511000000000170e+00
7.221003474635143832e-03 -3.080252000000000212e+00
7.241006254343274225e-03 -1.984169999999999989e+00
7.261009034051405485e-03 -1.602449999999999986e-01
7.281011813759535878e-03 1.317765000000000075e+00
7.301014593467666271e-03 9.254550000000000276e-01
7.321017373175796664e-03 -8.402020000000000044e-01
7.341020152883927924e-03 -1.199224999999999985e+00
7.361022932592058317e-03 -6.962810000000000388e-01
7.381025712300188710e-03 -2.894360000000000266e-01
7.401028492008319103e-03 -9.074999999999999734e-02
7.421031271716450363e-03 -9.324719999999999676e-01
7.441034051424580756e-03 -1.923240999999999978e+00
7.461036831132711149e-03 -1.931870999999999894e+00
7.481039610840841542e-03 -1.889240000000000030e+00
7.501042390548971935e-03 -2.092013000000000122e+00
7.521045170257103195e-03 -2.204527999999999821e+00
7.541047949965233588e-03 -2.005453000000000152e+00
7.561050729673363981e-03 -1.670698000000000016e+00
7.581053509381494374e-03 -1.082103000000000037e+00
7.601056289089625634e-03 -1.184171000000000085e+00
7.621059068797756027e-03 -1.754078999999999944e+00
7.641061848505886420e-03 -1.914870000000000072e+00
7.661064628214016813e-03 -1.179694000000000020e+00
7.681067407922147205e-03 -2.129979999999999929e-01
7.701070187630278466e-03 -2.190330000000000055e-01
7.721072967338408859e-03 -4.367309999999999803e-01
7.741075747046539252e-03 -5.296499999999999542e-01
7.761078526754669644e-03 -1.005535000000000068e+00
7.781081306462800905e-03 -1.506791999999999909e+00
7.801084086170931298e-03 -1.373577999999999966e+00
7.821086865879062558e-03 -6.043349999999999556e-01
7.841089645587192083e-03 -8.671299999999999564e-01
7.861092425295323344e-03 -1.381494000000000000e+00
