# time(s), 	 	 acceleration(g)
0.000000000000000000e+00 6.184594999999999843e+00
2.000277970813059281e-05 6.414490999999999943e+00
4.000555941626118562e-05 6.651396000000000086e+00
6.000833912439177504e-05 6.921263999999999861e+00
8.001111883252237124e-05 7.214945000000000164e+00
1.000138985406529674e-04 7.513557999999999737e+00
1.200166782487835501e-04 7.837282000000000082e+00
1.400194579569141598e-04 8.171193000000000595e+00
1.600222376650447425e-04 8.492126999999999981e+00
1.800250173731753251e-04 8.855302999999999258e+00
2.000277970813059349e-04 9.245212999999999681e+00
2.200305767894365175e-04 9.645699000000000467e+00
2.400333564975671002e-04 1.012430999999999948e+01
2.600361362056977099e-04 1.061343300000000056e+01
2.800389159138283197e-04 1.120339099999999988e+01
3.000416956219588752e-04 1.180236799999999953e+01
3.200444753300894850e-04 1.250575000000000081e+01
3.400472550382200947e-04 1.338426300000000069e+01
3.600500347463506503e-04 1.413676500000000047e+01
3.800528144544812600e-04 1.514700000000000024e+01
4.000555941626118698e-04 1.629615899999999939e+01
4.200583738707424253e-04 1.739308400000000177e+01
4.400611535788730351e-04 1.885104300000000066e+01
4.600639332870036448e-04 2.061819200000000052e+01
4.800667129951342003e-04 2.247780600000000106e+01
5.000694927032648101e-04 2.487047099999999844e+01
5.200722724113954198e-04 2.784057200000000165e+01
5.400750521195260296e-04 3.180267299999999864e+01
5.600778318276566393e-04 3.728256100000000117e+01
5.800806115357871407e-04 4.585122799999999899e+01
6.000833912439177504e-04 5.980082900000000024e+01
6.200861709520483602e-04 8.262705400000000111e+01
6.400889506601789699e-04 1.177461050000000000e+02
6.600917303683095797e-04 1.673740229999999940e+02
6.800945100764401894e-04 2.306770030000000133e+02
7.000972897845707992e-04 3.049873860000000150e+02
7.201000694927013005e-04 3.803385000000000105e+02
7.401028492008319103e-04 4.458108030000000213e+02
7.601056289089625200e-04 4.876717399999999998e+02
7.801084086170931298e-04 4.998269389999999817e+02
8.001111883252237395e-04 4.808243459999999914e+02
8.201139680333543493e-04 4.424842100000000187e+02
8.401167477414848506e-04 3.950328170000000227e+02
8.601195274496154604e-04 3.465605469999999855e+02
8.801223071577460701e-04 2.993304200000000037e+02
9.001250868658766799e-04 2.579874149999999986e+02
9.201278665740072896e-04 2.119234480000000076e+02
9.401306462821378994e-04 1.610756430000000137e+02
9.601334259902684007e-04 1.077222040000000050e+02
9.801362056983990104e-04 6.181364299999999901e+01
1.000138985406529620e-03 2.514553000000000083e+01
1.020141765114660230e-03 1.361823999999999923e+00
1.040144544822790840e-03 -8.431077999999999406e+00
1.060147324530921449e-03 -5.357676999999999801e+00
1.080150104239052059e-03 8.504391000000000034e+00
1.100152883947182669e-03 3.114659500000000136e+01
1.120155663655313279e-03 5.195014299999999707e+01
1.140158443363443888e-03 6.843853699999999662e+01
1.160161223071574281e-03 6.828949000000000069e+01
1.180164002779704891e-03 5.594079599999999886e+01
1.200166782487835501e-03 3.081106099999999870e+01
1.220169562195966111e-03 -1.462668999999999997e+00
1.240172341904096720e-03 -2.197091400000000050e+01
1.260175121612227330e-03 -3.911486599999999925e+01
1.280177901320357940e-03 -4.074529700000000076e+01
1.300180681028488550e-03 -2.781443099999999902e+01
1.320183460736619159e-03 -1.214595800000000025e+01
1.340186240444749769e-03 5.463563999999999865e+00
1.360189020152880379e-03 2.121068100000000101e+01
1.380191799861010989e-03 2.849152399999999830e+01
1.400194579569141598e-03 2.141916499999999957e+01
1.420197359277271991e-03 7.473911000000000193e+00
1.440200138985402601e-03 2.909717000000000109e+00
1.460202918693533211e-03 1.254369999999999985e+00
1.480205698401663821e-03 1.175402000000000058e+00
1.500208478109794430e-03 5.277270999999999823e+00
1.520211257817925040e-03 1.651950199999999924e+01
1.540214037526055650e-03 1.758573499999999967e+01
1.560216817234186260e-03 2.246236299999999986e+01
1.580219596942316869e-03 1.955241399999999885e+01
1.600222376650447479e-03 5.174813999999999581e+00
1.620225156358578089e-03 -1.748693000000000053e+00
1.640227936066708699e-03 2.395936999999999983e+00
1.660230715774839308e-03 4.106360000000000010e-01
1.680233495482969701e-03 3.790632000000000001e+00
1.700236275191100311e-03 4.368521000000000321e+00
1.720239054899230921e-03 5.804871999999999588e+00
1.740241834607361530e-03 -1.915324000000000026e+00
1.760244614315492140e-03 -1.123551999999999929e+01
1.780247394023622750e-03 -2.098300000000000054e+01
1.800250173731753360e-03 -3.114069900000000146e+01
1.820252953439883969e-03 -3.159964899999999943e+01
1.840255733148014579e-03 -2.153220900000000171e+01
1.860258512856145189e-03 -1.161056999999999917e+01
1.880261292564275799e-03 1.316066099999999928e+01
1.900264072272406408e-03 2.813353899999999896e+01
1.920266851980536801e-03 3.432680100000000323e+01
1.940269631688667411e-03 4.627299699999999660e+01
1.960272411396798021e-03 3.292094600000000071e+01
1.980275191104928847e-03 2.081019500000000022e+01
2.000277970813059240e-03 9.273827999999999960e+00
2.020280750521190067e-03 -9.804033999999999693e+00
2.040283530229320460e-03 -1.674564499999999967e+01
2.060286309937450853e-03 -2.049387700000000123e+01
2.080289089645581679e-03 -1.955930100000000138e+01
2.100291869353712072e-03 -1.431352799999999981e+01
2.120294649061842899e-03 -9.657128999999999408e+00
2.140297428769973292e-03 -5.812213999999999992e+00
2.160300208478104118e-03 -5.255479000000000234e+00
2.180302988186234511e-03 -3.787720999999999894e+00
2.200305767894365338e-03 -6.336829999999999963e+00
2.220308547602495731e-03 -1.224023900000000076e+01
2.240311327310626557e-03 -7.937413000000000274e+00
2.260314107018756950e-03 -4.549437000000000175e+00
2.280316886726887777e-03 -2.231587000000000209e+00
2.300319666435018170e-03 1.089555000000000051e+00
2.320322446143148563e-03 6.501506000000000007e+00
2.340325225851279389e-03 7.414863999999999677e+00
2.360328005559409782e-03 9.254946000000000339e+00
2.380330785267540609e-03 1.195550300000000021e+01
2.400333564975671002e-03 6.115294999999999703e+00
2.420336344683801828e-03 7.467812000000000339e+00
2.440339124391932221e-03 8.789896999999999849e+00
2.460341904100063048e-03 3.003090999999999955e+00
2.480344683808193441e-03 -2.335601000000000038e+00
2.500347463516324267e-03 -7.318774000000000335e+00
2.520350243224454660e-03 -1.406779900000000083e+01
2.540353022932585487e-03 -1.540792199999999923e+01
2.560355802640715880e-03 -1.737044799999999967e+01
2.580358582348846273e-03 -1.286562600000000067e+01
2.600361362056977099e-03 -1.254858499999999921e+01
2.620364141765107492e-03 -8.913906000000000773e+00
2.640366921473238319e-03 -4.576623999999999803e+00
2.660369701181368712e-03 -4.260426999999999964e+00
2.680372480889499538e-03 -7.181480000000000086e-01
2.700375260597629931e-03 -4.750003999999999671e+00
2.720378040305760758e-03 -4.099895000000000067e+00
2.740380820013891151e-03 -6.908950000000000369e-01
2.760383599722021977e-03 3.744237000000000037e+00
2.780386379430152370e-03 1.314528199999999991e+01
2.800389159138283197e-03 1.606561299999999903e+01
2.820391938846413590e-03 1.033045800000000014e+01
2.840394718554543983e-03 4.818581000000000003e+00
2.860397498262674809e-03 -1.355220000000000036e-01
2.880400277970805202e-03 -1.238429999999999948e-01
2.900403057678936029e-03 -5.061918999999999613e+00
2.920405837387066422e-03 -1.047717800000000032e+01
2.940408617095197248e-03 -1.250569499999999934e+01
2.960411396803327641e-03 -8.945441999999999894e+00
2.980414176511458468e-03 -8.689655000000000129e+00
3.000416956219588861e-03 -7.013738000000000028e+00
3.020419735927719687e-03 -1.333002699999999940e+01
3.040422515635850080e-03 -1.898439700000000130e+01
3.060425295343980907e-03 -1.401796500000000023e+01
3.080428075052111300e-03 -1.124992499999999929e+01
3.100430854760241692e-03 -7.186274000000000051e+00
3.120433634468372519e-03 1.638829000000000091e+00
3.140436414176502912e-03 8.108188000000000173e+00
3.160439193884633739e-03 1.324767499999999920e+01
3.180441973592764131e-03 1.249828800000000051e+01
3.200444753300894958e-03 1.000699299999999958e+01
3.220447533009025351e-03 4.275146999999999586e+00
3.240450312717156178e-03 -4.832549999999999901e-01
3.260453092425286570e-03 -3.241238000000000063e+00
3.280455872133417397e-03 -6.194920999999999900e+00
3.300458651841547790e-03 -4.068813999999999709e+00
3.320461431549678617e-03 1.758610999999999924e+00
3.340464211257809009e-03 3.973094999999999821e+00
3.360466990965939402e-03 -1.145887000000000100e+00
3.380469770674070229e-03 -4.813075000000000436e+00
3.400472550382200622e-03 -1.221493300000000026e+01
3.420475330090331448e-03 -1.835608999999999824e+01
3.440478109798461841e-03 -1.894144100000000108e+01
3.460480889506592668e-03 -1.789207899999999896e+01
3.480483669214723061e-03 -1.380104599999999948e+01
3.500486448922853887e-03 -6.414500999999999564e+00
3.520489228630984280e-03 3.494159999999999933e+00
3.540492008339115107e-03 8.707554000000000016e+00
3.560494788047245500e-03 9.983439000000000618e+00
3.580497567755376326e-03 9.914723000000000397e+00
3.600500347463506719e-03 4.293186000000000391e+00
3.620503127171637112e-03 1.488224999999999909e+00
3.640505906879767939e-03 -2.515728999999999882e+00
3.660508686587898332e-03 -3.341553999999999913e+00
3.680511466296029158e-03 -1.325172000000000017e+00
3.700514246004159551e-03 -2.080462999999999951e+00
3.720517025712290378e-03 -1.458515999999999924e+00
3.740519805420420771e-03 2.020879999999999899e-01
3.760522585128551597e-03 -3.294070000000000054e-01
3.780525364836681990e-03 -7.681120000000000170e-01
3.800528144544812817e-03 -9.388959999999999528e-01
3.820530924252943210e-03 -2.671330000000000204e+00
3.840533703961073603e-03 -7.884528999999999677e+00
3.860536483669204429e-03 -9.809160999999999575e+00
3.880539263377334822e-03 -1.055192899999999945e+01
3.900542043085465649e-03 -1.414546900000000029e+01
3.920544822793596042e-03 -1.251101500000000044e+01
3.940547602501726435e-03 -8.608351000000000752e+00
3.960550382209857695e-03 -2.431894999999999918e+00
3.980553161917988088e-03 4.571359000000000172e+00
4.000555941626118481e-03 1.210098100000000088e+01
4.020558721334248874e-03 1.444588899999999931e+01
4.040561501042380134e-03 9.926857000000000042e+00
4.060564280750510527e-03 8.816240999999999772e+00
4.080567060458640920e-03 2.608639000000000152e+00
4.100569840166771313e-03 -1.041743000000000086e+00
4.120572619874901706e-03 -2.641805999999999877e+00
4.140575399583032966e-03 -5.559671999999999947e+00
4.160578179291163359e-03 -6.626813000000000287e+00
4.180580958999293752e-03 -6.552191999999999794e+00
4.200583738707424145e-03 -5.957887000000000377e+00
4.220586518415555405e-03 -4.769599999999999618e+00
4.240589298123685798e-03 -7.455557999999999907e+00
4.260592077831816191e-03 -5.006959000000000160e+00
4.280594857539946584e-03 -4.357433999999999585e+00
4.300597637248077844e-03 -4.381832000000000171e+00
4.320600416956208237e-03 -1.403491000000000044e+00
4.340603196664338630e-03 -4.320000000000000055e-03
4.360605976372469023e-03 6.942599999999999882e-01
4.380608756080599415e-03 3.111777000000000015e+00
4.400611535788730676e-03 2.790388999999999786e+00
4.420614315496861069e-03 3.440303000000000111e+00
4.440617095204991462e-03 3.141755999999999993e+00
4.460619874913121854e-03 3.124171000000000031e+00
4.480622654621253115e-03 -1.413289000000000017e+00
4.500625434329383508e-03 -3.612394999999999801e+00
4.520628214037513901e-03 -2.832250999999999852e+00
4.540630993745644294e-03 -2.633110999999999979e+00
4.560633773453775554e-03 8.305240000000000400e-01
4.580636553161905947e-03 3.874531000000000169e+00
4.600639332870036340e-03 1.240094999999999947e+00
4.620642112578166733e-03 7.476629999999999665e-01
4.640644892286297125e-03 -3.091801999999999939e+00
4.660647671994428386e-03 -6.170393999999999934e+00
4.680650451702558779e-03 -1.012334599999999973e+01
4.700653231410689172e-03 -1.259660200000000074e+01
4.720656011118819564e-03 -1.000486199999999926e+01
4.740658790826950825e-03 -4.619514999999999816e+00
4.760661570535081218e-03 5.362209000000000003e+00
4.780664350243211611e-03 8.646300000000000097e+00
4.800667129951342003e-03 7.855320999999999998e+00
4.820669909659473264e-03 8.926289999999999836e+00
4.840672689367603657e-03 3.305791000000000146e+00
4.860675469075734050e-03 -2.297642000000000184e+00
4.880678248783864442e-03 -5.796706000000000358e+00
4.900681028491994835e-03 -8.624052999999999969e+00
4.920683808200126096e-03 -8.388317000000000689e+00
4.940686587908256489e-03 -3.174144000000000077e+00
4.960689367616386881e-03 1.616832000000000047e+00
4.980692147324517274e-03 2.538171000000000177e+00
5.000694927032648535e-03 1.702353999999999923e+00
5.020697706740778928e-03 -8.563589999999999813e-01
5.040700486448909320e-03 -1.956139000000000072e+00
5.060703266157039713e-03 -6.231529999999999569e-01
5.080706045865170974e-03 1.297649999999999970e+00
5.100708825573301367e-03 -1.889564000000000021e+00
5.120711605281431759e-03 -2.780924999999999869e+00
5.140714384989562152e-03 -5.169242999999999810e+00
5.160717164697692545e-03 -6.115629000000000204e+00
5.180719944405823806e-03 -3.726337000000000010e+00
5.200722724113954198e-03 -1.906694000000000111e+00
5.220725503822084591e-03 -2.118876999999999899e+00
5.240728283530214984e-03 -3.003370000000000206e-01
5.260731063238346245e-03 1.586780000000000135e-01
5.280733842946476637e-03 4.078603000000000200e+00
5.300736622654607030e-03 3.528810000000000002e+00
5.320739402362737423e-03 2.655552999999999830e+00
5.340742182070868684e-03 -2.419760999999999829e+00
5.360744961778999076e-03 -3.633872999999999909e+00
5.380747741487129469e-03 -2.431894999999999918e+00
5.400750521195259862e-03 -3.337076999999999849e+00
5.420753300903390255e-03 -2.208162000000000180e+00
5.440756080611521515e-03 -1.438660000000000050e+00
5.460758860319651908e-03 -3.262844999999999995e+00
5.480761640027782301e-03 -8.232009999999999605e-01
5.500764419735912694e-03 4.607950000000000101e-01
5.520767199444043954e-03 -1.353657000000000110e+00
5.540769979152174347e-03 -4.375342999999999982e+00
5.560772758860304740e-03 -4.739817000000000391e+00
5.580775538568435133e-03 -4.995733000000000423e+00
5.600778318276566393e-03 -3.405857999999999830e+00
5.620781097984696786e-03 6.504609999999999559e-01
5.640783877692827179e-03 9.900830000000000464e-01
5.660786657400957572e-03 1.381420000000000092e+00
5.680789437109087965e-03 4.080409999999999870e-01
5.700792216817219225e-03 -3.323909999999999920e-01
5.720794996525349618e-03 -1.673820000000000030e-01
5.740797776233480011e-03 1.676970000000000127e-01
5.760800555941610404e-03 -6.773339999999999916e-01
5.780803335649741664e-03 -1.566877999999999993e+00
5.800806115357872057e-03 -2.672302999999999873e+00
5.820808895066002450e-03 -1.368646000000000029e+00
5.840811674774132843e-03 -1.311220999999999970e+00
5.860814454482264103e-03 -5.513219999999999787e-01
5.880817234190394496e-03 -3.236175999999999942e+00
5.900820013898524889e-03 -4.375342999999999982e+00
5.920822793606655282e-03 -5.282017999999999880e+00
5.940825573314785675e-03 -4.644561999999999635e+00
5.960828353022916935e-03 -2.602679000000000187e+00
5.980831132731047328e-03 -1.380586000000000091e+00
6.000833912439177721e-03 -2.004868999999999790e+00
6.020836692147308114e-03 -1.447289999999999965e+00
6.040839471855439374e-03 3.851359999999999784e-01
6.060842251563569767e-03 2.256947999999999954e+00
6.080845031271700160e-03 3.164142000000000010e+00
6.100847810979830553e-03 7.394220000000000237e-01
6.120850590687961813e-03 -2.308284000000000002e+00
6.140853370396092206e-03 -2.239892000000000216e+00
6.160856150104222599e-03 -1.327831999999999901e+00
6.180858929812352992e-03 -5.816249999999999476e-01
6.200861709520483385e-03 -1.132845000000000102e+00
6.220864489228614645e-03 -3.078174999999999883e+00
6.240867268936745038e-03 -4.335567000000000171e+00
6.260870048644875431e-03 -3.395865000000000133e+00
6.280872828353005824e-03 -1.013646000000000047e+00
6.300875608061137084e-03 -1.078599000000000085e+00
6.320878387769267477e-03 -1.337955000000000005e+00
6.340881167477397870e-03 -2.146129999999999871e+00
6.360883947185528263e-03 -2.850678999999999963e+00
6.380886726893659523e-03 -3.361549999999999816e-01
6.400889506601789916e-03 1.175531000000000104e+00
6.420892286309920309e-03 7.695950000000000291e-01
6.440895066018050702e-03 4.369160000000000266e-01
6.460897845726181095e-03 -1.247630999999999935e+00
6.480900625434312355e-03 -2.638301999999999925e+00
6.500903405142442748e-03 -1.873666999999999971e+00
6.520906184850573141e-03 -7.142549999999999732e-01
6.540908964558703534e-03 -1.088721000000000050e+00
6.560911744266834794e-03 -1.121618999999999922e+00
6.580914523974965187e-03 2.835219999999999962e-01
6.600917303683095580e-03 9.152019999999999600e-01
6.620920083391225973e-03 5.729199999999999848e-01
6.640922863099357233e-03 -1.345221999999999918e+00
6.660925642807487626e-03 -4.086464000000000318e+00
6.680928422515618019e-03 -4.942071000000000325e+00
6.700931202223748412e-03 -3.866299999999999848e+00
6.720933981931878805e-03 -1.386554999999999982e+00
6.740936761640010065e-03 5.321709999999999496e-01
6.760939541348140458e-03 1.327174000000000076e+00
6.780942321056270851e-03 -2.476480000000000070e-01
6.800945100764401244e-03 -2.380958000000000130e+00
6.820947880472532504e-03 -3.014390999999999821e+00
6.840950660180662897e-03 -3.191533999999999871e+00
6.860953439888793290e-03 -2.368694000000000077e+00
6.880956219596923683e-03 -5.916169999999999485e-01
6.900958999305054943e-03 1.438840000000000119e-01
6.920961779013185336e-03 1.557590000000000030e+00
6.940964558721315729e-03 1.943475999999999981e+00
6.960967338429446122e-03 4.689059999999999895e-01
6.980970118137576515e-03 -1.775492000000000070e+00
7.000972897845707775e-03 -3.687339999999999840e+00
7.020975677553838168e-03 -4.303383000000000180e+00
7.040978457261968561e-03 -2.727651999999999965e+00
7.060981236970098954e-03 -4.174590000000000245e-01
7.080984016678230214e-03 7.675180000000000335e-01
7.100986796386360607e-03 2.738530000000000131e-01
7.120989576094491000e-03 -6.771390000000000464e-01
7.140992355802621393e-03 -1.709954999999999892e+00
7.160995135510752653e-03 -2.368240000000000123e+00
7.180997915218883046e-03 -3.450695000000000068e+00
7.201000694927013439e-03 -4.220067000000000235e+00
7.221003474635143832e-03 -3.220279000000000114e+00
7.241006254343274225e-03 -2.110701000000000160e+00
7.261009034051405485e-03 -3.013100000000000223e-01
7.281011813759535878e-03 1.392644999999999911e+00
7.301014593467666271e-03 1.666276000000000090e+00
7.321017373175796664e-03 -9.237199999999999578e-02
7.341020152883927924e-03 -1.652465000000000073e+00
7.361022932592058317e-03 -1.524766000000000066e+00
7.381025712300188710e-03 -9.148230000000000528e-01
7.401028492008319103e-03 -4.086989999999999790e-01
7.421031271716450363e-03 -5.417840000000000433e-01
7.441034051424580756e-03 -1.909094999999999986e+00
7.461036831132711149e-03 -2.077802999999999845e+00
7.481039610840841542e-03 -1.715146000000000059e+00
7.501042390548971935e-03 -1.820394000000000068e+00
7.521045170257103195e-03 -1.749082000000000026e+00
7.541047949965233588e-03 -1.684973000000000054e+00
7.561050729673363981e-03 -1.597893999999999926e+00
7.581053509381494374e-03 -1.365142000000000078e+00
7.601056289089625634e-03 -1.256261000000000072e+00
7.621059068797756027e-03 -1.946015999999999968e+00
7.641061848505886420e-03 -2.463754000000000222e+00
7.661064628214016813e-03 -2.039843999999999991e+00
7.681067407922147205e-03 -7.036780000000000257e-01
7.701070187630278466e-03 2.624200000000000144e-02
7.721072967338408859e-03 3.902499999999999719e-02
7.741075747046539252e-03 1.388220000000000010e-01
7.761078526754669644e-03 -8.679199999999999415e-02
7.781081306462800905e-03 -9.753629999999999800e-01
7.801084086170931298e-03 -1.554159999999999986e+00
7.821086865879062558e-03 -1.582386000000000070e+00
7.841089645587192083e-03 -1.388891000000000098e+00
7.861092425295323344e-03 -1.906565000000000065e+00
