# time(s), 	 	 acceleration(g)
0.000000000000000000e+00 6.155848999999999904e+00
2.000277970813059281e-05 6.387888000000000233e+00
4.000555941626118562e-05 6.614670000000000272e+00
6.000833912439177504e-05 6.864940999999999960e+00
8.001111883252237124e-05 7.148953999999999809e+00
1.000138985406529674e-04 7.434264999999999901e+00
1.200166782487835501e-04 7.753900999999999932e+00
1.400194579569141598e-04 8.086449999999999250e+00
1.600222376650447425e-04 8.434701999999999700e+00
1.800250173731753251e-04 8.796514999999999418e+00
2.000277970813059349e-04 9.165400999999999243e+00
2.200305767894365175e-04 9.576852999999999838e+00
2.400333564975671002e-04 1.002185300000000012e+01
2.600361362056977099e-04 1.052096799999999988e+01
2.800389159138283197e-04 1.107919599999999960e+01
3.000416956219588752e-04 1.167836800000000075e+01
3.200444753300894850e-04 1.237052399999999963e+01
3.400472550382200947e-04 1.317571399999999926e+01
3.600500347463506503e-04 1.398389000000000060e+01
3.800528144544812600e-04 1.497712399999999988e+01
4.000555941626118698e-04 1.608955699999999922e+01
4.200583738707424253e-04 1.715118299999999962e+01
4.400611535788730351e-04 1.854496899999999826e+01
4.600639332870036448e-04 2.032769100000000151e+01
4.800667129951342003e-04 2.211274799999999985e+01
5.000694927032648101e-04 2.431905700000000081e+01
5.200722724113954198e-04 2.727014499999999941e+01
5.400750521195260296e-04 3.095615000000000094e+01
5.600778318276566393e-04 3.603289099999999934e+01
5.800806115357871407e-04 4.393211199999999650e+01
6.000833912439177504e-04 5.652997500000000031e+01
6.200861709520483602e-04 7.742125199999999552e+01
6.400889506601789699e-04 1.096991340000000008e+02
6.600917303683095797e-04 1.558777570000000026e+02
6.800945100764401894e-04 2.154179049999999904e+02
7.000972897845707992e-04 2.862856760000000236e+02
7.201000694927013005e-04 3.593784430000000043e+02
7.401028492008319103e-04 4.253046990000000278e+02
7.601056289089625200e-04 4.711112570000000233e+02
7.801084086170931298e-04 4.902705530000000067e+02
8.001111883252237395e-04 4.793182400000000030e+02
8.201139680333543493e-04 4.470933709999999905e+02
8.401167477414848506e-04 4.033326539999999909e+02
8.601195274496154604e-04 3.566522550000000251e+02
8.801223071577460701e-04 3.093337520000000040e+02
9.001250868658766799e-04 2.670472809999999981e+02
9.201278665740072896e-04 2.227964690000000019e+02
9.401306462821378994e-04 1.730159350000000131e+02
9.601334259902684007e-04 1.197011679999999956e+02
9.801362056983990104e-04 7.196472400000000391e+01
1.000138985406529620e-03 3.367292900000000344e+01
1.020141765114660230e-03 6.856181000000000303e+00
1.040144544822790840e-03 -5.501273000000000302e+00
1.060147324530921449e-03 -6.155210000000000292e+00
1.080150104239052059e-03 5.017851000000000283e+00
1.100152883947182669e-03 2.621215199999999967e+01
1.120155663655313279e-03 4.629797899999999800e+01
1.140158443363443888e-03 6.469899900000000059e+01
1.160161223071574281e-03 6.868446099999999888e+01
1.180164002779704891e-03 5.872213800000000106e+01
1.200166782487835501e-03 3.999252700000000260e+01
1.220169562195966111e-03 6.031460000000000043e+00
1.240172341904096720e-03 -1.442253900000000044e+01
1.260175121612227330e-03 -3.492617700000000269e+01
1.280177901320357940e-03 -4.424754000000000076e+01
1.300180681028488550e-03 -3.302386700000000275e+01
1.320183460736619159e-03 -1.909496499999999841e+01
1.340186240444749769e-03 -2.340467999999999993e+00
1.360189020152880379e-03 1.690123600000000081e+01
1.380191799861010989e-03 2.532014300000000162e+01
1.400194579569141598e-03 2.976864199999999983e+01
1.420197359277271991e-03 1.442408700000000010e+01
1.440200138985402601e-03 6.510720000000000063e+00
1.460202918693533211e-03 8.366505000000000081e+00
1.480205698401663821e-03 -3.596440000000000192e-01
1.500208478109794430e-03 5.689892000000000394e+00
1.520211257817925040e-03 1.150661099999999948e+01
1.540214037526055650e-03 1.195128500000000038e+01
1.560216817234186260e-03 1.976271399999999900e+01
1.580219596942316869e-03 1.648030999999999935e+01
1.600222376650447479e-03 9.210433000000000092e+00
1.620225156358578089e-03 -1.136673000000000044e+00
1.640227936066708699e-03 -3.875460000000000016e-01
1.660230715774839308e-03 5.459735000000000227e+00
1.680233495482969701e-03 4.233944000000000152e+00
1.700236275191100311e-03 5.928224000000000160e+00
1.720239054899230921e-03 5.591457000000000122e+00
1.740241834607361530e-03 -9.180669999999999664e-01
1.760244614315492140e-03 -9.776457000000000619e+00
1.780247394023622750e-03 -1.846114299999999986e+01
1.800250173731753360e-03 -2.875634000000000157e+01
1.820252953439883969e-03 -3.390834999999999866e+01
1.840255733148014579e-03 -2.281334899999999877e+01
1.860258512856145189e-03 -1.308416700000000077e+01
1.880261292564275799e-03 6.887326999999999977e+00
1.900264072272406408e-03 2.950059100000000001e+01
1.920266851980536801e-03 3.084668399999999977e+01
1.940269631688667411e-03 4.769131099999999890e+01
1.960272411396798021e-03 3.441329600000000255e+01
1.980275191104928847e-03 2.220806800000000081e+01
2.000277970813059240e-03 1.417186899999999916e+01
2.020280750521190067e-03 -9.595485999999999294e+00
2.040283530229320460e-03 -1.439878999999999998e+01
2.060286309937450853e-03 -2.134675999999999974e+01
2.080289089645581679e-03 -2.234226500000000115e+01
2.100291869353712072e-03 -1.523025999999999947e+01
2.120294649061842899e-03 -1.081874700000000011e+01
2.140297428769973292e-03 -6.024072000000000315e+00
2.160300208478104118e-03 -6.470303999999999611e+00
2.180302988186234511e-03 -3.919312999999999825e+00
2.200305767894365338e-03 -2.796432999999999947e+00
2.220308547602495731e-03 -1.057762400000000014e+01
2.240311327310626557e-03 -5.772372999999999976e+00
2.260314107018756950e-03 -6.709998999999999825e+00
2.280316886726887777e-03 3.419849999999999834e-01
2.300319666435018170e-03 3.941549999999999776e-01
2.320322446143148563e-03 5.742450999999999972e+00
2.340325225851279389e-03 6.486062000000000438e+00
2.360328005559409782e-03 4.682512000000000008e+00
2.380330785267540609e-03 1.077175899999999942e+01
2.400333564975671002e-03 4.405052000000000412e+00
2.420336344683801828e-03 6.596890000000000143e+00
2.440339124391932221e-03 1.043628999999999962e+01
2.460341904100063048e-03 5.227891999999999761e+00
2.480344683808193441e-03 1.286553999999999975e+00
2.500347463516324267e-03 -3.933523000000000103e+00
2.520350243224454660e-03 -1.218826400000000021e+01
2.540353022932585487e-03 -1.488038599999999967e+01
2.560355802640715880e-03 -1.772732900000000100e+01
2.580358582348846273e-03 -1.816142800000000079e+01
2.600361362056977099e-03 -1.444388700000000014e+01
2.620364141765107492e-03 -1.169258800000000065e+01
2.640366921473238319e-03 -3.437133000000000216e+00
2.660369701181368712e-03 -4.721453999999999596e+00
2.680372480889499538e-03 2.336176000000000030e+00
2.700375260597629931e-03 -3.084014999999999951e+00
2.720378040305760758e-03 -2.203295999999999921e+00
2.740380820013891151e-03 4.804559999999999942e-01
2.760383599722021977e-03 4.085416000000000381e+00
2.780386379430152370e-03 8.969699999999999562e+00
2.800389159138283197e-03 1.424739800000000045e+01
2.820391938846413590e-03 9.961052999999999713e+00
2.840394718554543983e-03 4.676606999999999736e+00
2.860397498262674809e-03 -1.441256000000000093e+00
2.880400277970805202e-03 -1.390260000000000107e-01
2.900403057678936029e-03 -3.789149000000000100e+00
2.920405837387066422e-03 -8.858686999999999756e+00
2.940408617095197248e-03 -1.041462699999999941e+01
2.960411396803327641e-03 -9.201294000000000750e+00
2.980414176511458468e-03 -8.289882000000000417e+00
3.000416956219588861e-03 -7.332271000000000427e+00
3.020419735927719687e-03 -1.033598300000000059e+01
3.040422515635850080e-03 -1.933732099999999932e+01
3.060425295343980907e-03 -1.606828300000000098e+01
3.080428075052111300e-03 -1.084768700000000052e+01
3.100430854760241692e-03 -8.806972000000000023e+00
3.120433634468372519e-03 -5.624829999999999552e-01
3.140436414176502912e-03 6.486126999999999754e+00
3.160439193884633739e-03 1.334396800000000027e+01
3.180441973592764131e-03 1.284076499999999932e+01
3.200444753300894958e-03 1.182624700000000040e+01
3.220447533009025351e-03 6.525902999999999565e+00
3.240450312717156178e-03 3.779199999999999920e-02
3.260453092425286570e-03 -1.945367000000000068e+00
3.280455872133417397e-03 -5.684320999999999735e+00
3.300458651841547790e-03 -6.801684999999999981e+00
3.320461431549678617e-03 -1.239780000000000104e+00
3.340464211257809009e-03 3.016976999999999798e+00
3.360466990965939402e-03 -1.091252000000000111e+00
3.380469770674070229e-03 -4.504469000000000278e+00
3.400472550382200622e-03 -9.837711000000000539e+00
3.420475330090331448e-03 -1.747400800000000132e+01
3.440478109798461841e-03 -1.780577900000000113e+01
3.460480889506592668e-03 -1.619234799999999908e+01
3.480483669214723061e-03 -1.355622499999999953e+01
3.500486448922853887e-03 -7.111523000000000039e+00
3.520489228630984280e-03 2.132947999999999844e+00
3.540492008339115107e-03 8.833631000000000455e+00
3.560494788047245500e-03 8.079506999999999550e+00
3.580497567755376326e-03 9.265392999999999546e+00
3.600500347463506719e-03 4.728127999999999886e+00
3.620503127171637112e-03 -1.736759999999999970e-01
3.640505906879767939e-03 -1.138878999999999975e+00
3.660508686587898332e-03 -4.640278999999999598e+00
3.680511466296029158e-03 -2.101551999999999865e+00
3.700514246004159551e-03 3.434780000000000055e-01
3.720517025712290378e-03 -1.384420000000000095e-01
3.740519805420420771e-03 1.693075000000000108e+00
3.760522585128551597e-03 -3.417350000000000110e-01
3.780525364836681990e-03 -1.237314000000000025e+00
3.800528144544812817e-03 -2.331123999999999974e+00
3.820530924252943210e-03 -5.794175000000000075e+00
3.840533703961073603e-03 -8.503752000000000422e+00
3.860536483669204429e-03 -1.118250699999999931e+01
3.880539263377334822e-03 -1.055932600000000043e+01
3.900542043085465649e-03 -1.199061700000000030e+01
3.920544822793596042e-03 -8.859531000000000489e+00
3.940547602501726435e-03 -8.025919999999999277e+00
3.960550382209857695e-03 -5.567079999999999806e-01
3.980553161917988088e-03 3.526733999999999813e+00
4.000555941626118481e-03 1.081886699999999912e+01
4.020558721334248874e-03 1.388402699999999967e+01
4.040561501042380134e-03 8.379288000000000736e+00
4.060564280750510527e-03 8.836290999999999229e+00
4.080567060458640920e-03 2.490089000000000219e+00
4.100569840166771313e-03 -2.161118999999999790e+00
4.120572619874901706e-03 -2.083708000000000116e+00
4.140575399583032966e-03 -6.689169999999999838e+00
4.160578179291163359e-03 -5.945947999999999567e+00
4.180580958999293752e-03 -6.460117000000000331e+00
4.200583738707424145e-03 -7.433885000000000076e+00
4.220586518415555405e-03 -4.964002999999999943e+00
4.240589298123685798e-03 -6.814014000000000237e+00
4.260592077831816191e-03 -5.015069999999999695e+00
4.280594857539946584e-03 -3.282896000000000036e+00
4.300597637248077844e-03 -2.456941000000000042e+00
4.320600416956208237e-03 -6.927200000000000024e-02
4.340603196664338630e-03 -1.100660999999999889e+00
4.360605976372469023e-03 1.606514999999999915e+00
4.380608756080599415e-03 1.886764000000000108e+00
4.400611535788730676e-03 2.079610000000000181e+00
4.420614315496861069e-03 2.969803000000000193e+00
4.440617095204991462e-03 2.969155000000000211e+00
4.460619874913121854e-03 2.536354000000000219e+00
4.480622654621253115e-03 -1.060754999999999892e+00
4.500625434329383508e-03 -3.156689000000000078e+00
4.520628214037513901e-03 -3.636598000000000219e+00
4.540630993745644294e-03 -4.456517999999999979e+00
4.560633773453775554e-03 8.178060000000000329e-01
4.580636553161905947e-03 2.394575000000000120e+00
4.600639332870036340e-03 2.765471999999999930e+00
4.620642112578166733e-03 2.629272999999999971e+00
4.640644892286297125e-03 -2.529225999999999974e+00
4.660647671994428386e-03 -2.314318000000000097e+00
4.680650451702558779e-03 -9.320945999999999287e+00
4.700653231410689172e-03 -1.188413599999999981e+01
4.720656011118819564e-03 -1.204207300000000025e+01
4.740658790826950825e-03 -8.311489999999999156e+00
4.760661570535081218e-03 2.852357000000000031e+00
4.780664350243211611e-03 6.374520999999999660e+00
4.800667129951342003e-03 7.509405000000000108e+00
4.820669909659473264e-03 1.084352400000000038e+01
4.840672689367603657e-03 4.552800999999999654e+00
4.860675469075734050e-03 1.303425000000000056e+00
4.880678248783864442e-03 -4.852527000000000257e+00
4.900681028491994835e-03 -8.253674999999999429e+00
4.920683808200126096e-03 -7.466912999999999911e+00
4.940686587908256489e-03 -3.571190999999999782e+00
4.960689367616386881e-03 8.751020000000000465e-01
4.980692147324517274e-03 1.848740000000000050e+00
5.000694927032648535e-03 7.334519999999999929e-01
5.020697706740778928e-03 -1.648376999999999981e+00
5.040700486448909320e-03 -2.924392000000000102e+00
5.060703266157039713e-03 -1.585436000000000067e+00
5.080706045865170974e-03 -5.524250000000000549e-01
5.100708825573301367e-03 -1.629623999999999961e+00
5.120711605281431759e-03 -1.140371999999999941e+00
5.140714384989562152e-03 -3.596108000000000082e+00
5.160717164697692545e-03 -4.336604999999999599e+00
5.180719944405823806e-03 -2.354093999999999909e+00
5.200722724113954198e-03 -8.803670000000000107e-01
5.220725503822084591e-03 -2.475303999999999949e+00
5.240728283530214984e-03 -1.627094000000000040e+00
5.260731063238346245e-03 -9.154710000000000347e-01
5.280733842946476637e-03 1.476933999999999969e+00
5.300736622654607030e-03 3.885756999999999906e+00
5.320739402362737423e-03 2.905565000000000175e+00
5.340742182070868684e-03 -1.756869000000000014e+00
5.360744961778999076e-03 -1.548125999999999891e+00
5.380747741487129469e-03 -2.452463999999999977e+00
5.400750521195259862e-03 -2.333136000000000099e+00
5.420753300903390255e-03 -3.003619000000000039e+00
5.440756080611521515e-03 -3.813156999999999908e+00
5.460758860319651908e-03 -4.202872000000000163e+00
5.480761640027782301e-03 -1.669464999999999977e+00
5.500764419735912694e-03 1.311341000000000090e+00
5.520767199444043954e-03 -4.460100000000000176e-01
5.540769979152174347e-03 -3.110294999999999810e+00
5.560772758860304740e-03 -3.298598000000000141e+00
5.580775538568435133e-03 -5.564472999999999558e+00
5.600778318276566393e-03 -2.825826999999999867e+00
5.620781097984696786e-03 4.930439999999999823e-01
5.640783877692827179e-03 2.428369999999999973e-01
5.660786657400957572e-03 1.107919000000000098e+00
5.680789437109087965e-03 -3.397240000000000260e-01
5.700792216817219225e-03 -5.240690000000000071e-01
5.720794996525349618e-03 7.287799999999999834e-01
5.740797776233480011e-03 5.760999999999999455e-01
5.760800555941610404e-03 -9.113839999999999719e-01
5.780803335649741664e-03 -2.224188999999999972e+00
5.800806115357872057e-03 -2.744069000000000091e+00
5.820808895066002450e-03 -2.036144999999999872e+00
5.840811674774132843e-03 -1.015009000000000050e+00
5.860814454482264103e-03 3.458789999999999920e-01
5.880817234190394496e-03 -3.207171999999999912e+00
5.900820013898524889e-03 -4.140254999999999797e+00
5.920822793606655282e-03 -4.394161000000000428e+00
5.940825573314785675e-03 -4.845647999999999733e+00
5.960828353022916935e-03 -3.331430999999999809e+00
5.980831132731047328e-03 -1.940890000000000004e+00
6.000833912439177721e-03 -2.767298999999999953e+00
6.020836692147308114e-03 -1.090538000000000007e+00
6.040839471855439374e-03 9.315539999999999932e-01
6.060842251563569767e-03 3.110219999999999985e+00
6.080845031271700160e-03 3.696868999999999961e+00
6.100847810979830553e-03 1.052375000000000060e+00
6.120850590687961813e-03 -3.071492000000000111e+00
6.140853370396092206e-03 -3.450045999999999946e+00
6.160856150104222599e-03 -1.484275999999999929e+00
6.180858929812352992e-03 -8.797180000000000000e-01
6.200861709520483385e-03 -1.189491999999999994e+00
6.220864489228614645e-03 -2.237490999999999897e+00
6.240867268936745038e-03 -3.935016000000000069e+00
6.260870048644875431e-03 -2.876440000000000108e+00
6.280872828353005824e-03 -9.181319999999999482e-01
6.300875608061137084e-03 -1.159772999999999943e+00
6.320878387769267477e-03 -1.909613999999999923e+00
6.340881167477397870e-03 -3.337985000000000202e+00
6.360883947185528263e-03 -3.588321000000000094e+00
6.380886726893659523e-03 -8.512330000000000174e-01
6.400889506601789916e-03 1.593992000000000075e+00
6.420892286309920309e-03 1.844846999999999904e+00
6.440895066018050702e-03 1.724739999999999940e+00
6.460897845726181095e-03 -2.145559999999999967e-01
6.480900625434312355e-03 -2.469984000000000179e+00
6.500903405142442748e-03 -2.015965000000000007e+00
6.520906184850573141e-03 -1.387658000000000058e+00
6.540908964558703534e-03 -2.186100000000000154e+00
6.560911744266834794e-03 -1.806378000000000039e+00
6.580914523974965187e-03 -3.872209999999999819e-01
6.600917303683095580e-03 8.291610000000000369e-01
6.620920083391225973e-03 1.291744999999999921e+00
6.640922863099357233e-03 -1.008974000000000038e+00
6.660925642807487626e-03 -3.992961000000000205e+00
6.680928422515618019e-03 -5.091183000000000014e+00
6.700931202223748412e-03 -3.838592999999999922e+00
6.720933981931878805e-03 -1.503872000000000098e+00
6.740936761640010065e-03 7.091840000000000366e-01
6.760939541348140458e-03 2.180575999999999848e+00
6.780942321056270851e-03 1.322039999999999882e-01
6.800945100764401244e-03 -1.932325000000000070e+00
6.820947880472532504e-03 -2.555569999999999897e+00
6.840950660180662897e-03 -4.043313000000000379e+00
6.860953439888793290e-03 -3.365756999999999888e+00
6.880956219596923683e-03 -1.152765000000000040e+00
6.900958999305054943e-03 -4.269330000000000069e-01
6.920961779013185336e-03 1.135950000000000015e+00
6.940964558721315729e-03 2.710122999999999838e+00
6.960967338429446122e-03 1.650638000000000050e+00
6.980970118137576515e-03 -4.275169999999999804e-01
7.000972897845707775e-03 -2.825178000000000189e+00
7.020975677553838168e-03 -4.555405999999999622e+00
7.040978457261968561e-03 -3.770719999999999850e+00
7.060981236970098954e-03 -1.755700999999999956e+00
7.080984016678230214e-03 -3.922180000000000111e-01
7.100986796386360607e-03 -7.920000000000000651e-02
7.120989576094491000e-03 6.180100000000000177e-02
7.140992355802621393e-03 -6.614360000000000239e-01
7.160995135510752653e-03 -1.485314000000000023e+00
7.180997915218883046e-03 -2.821610000000000174e+00
7.201000694927013439e-03 -3.926451000000000136e+00
7.221003474635143832e-03 -3.720042999999999989e+00
7.241006254343274225e-03 -2.574127999999999972e+00
7.261009034051405485e-03 -7.996469999999999967e-01
7.281011813759535878e-03 9.405729999999999924e-01
7.301014593467666271e-03 1.724091000000000040e+00
7.321017373175796664e-03 2.697649999999999770e-01
7.341020152883927924e-03 -1.159448999999999952e+00
7.361022932592058317e-03 -1.123890000000000056e+00
7.381025712300188710e-03 -1.114935999999999927e+00
7.401028492008319103e-03 -5.258209999999999829e-01
7.421031271716450363e-03 -3.831339999999999746e-01
7.441034051424580756e-03 -1.926355000000000040e+00
7.461036831132711149e-03 -2.250014999999999876e+00
7.481039610840841542e-03 -1.935049999999999937e+00
7.501042390548971935e-03 -2.059699000000000169e+00
7.521045170257103195e-03 -2.001236000000000015e+00
7.541047949965233588e-03 -1.778021999999999991e+00
7.561050729673363981e-03 -1.638449000000000044e+00
7.581053509381494374e-03 -1.321798000000000028e+00
7.601056289089625634e-03 -1.016955999999999971e+00
7.621059068797756027e-03 -1.484601000000000059e+00
7.641061848505886420e-03 -1.800213999999999981e+00
7.661064628214016813e-03 -1.275922000000000001e+00
7.681067407922147205e-03 -4.943509999999999849e-01
7.701070187630278466e-03 -2.616640000000000077e-01
7.721072967338408859e-03 -4.044820000000000082e-01
7.741075747046539252e-03 -6.990709999999999980e-01
7.761078526754669644e-03 -1.144330000000000069e+00
7.781081306462800905e-03 -1.305965000000000042e+00
7.801084086170931298e-03 -1.456828999999999930e+00
7.821086865879062558e-03 -1.141345000000000054e+00
7.841089645587192083e-03 -5.024619999999999642e-01
7.861092425295323344e-03 -8.766690000000000316e-01
