# time(s), 	 	 acceleration(g)
0.000000000000000000e+00 6.166426000000000407e+00
2.000277970813059281e-05 6.385615999999999737e+00
4.000555941626118562e-05 6.609479000000000326e+00
6.000833912439177504e-05 6.886224000000000345e+00
8.001111883252237124e-05 7.141232999999999720e+00
1.000138985406529674e-04 7.424597000000000335e+00
1.200166782487835501e-04 7.754160999999999859e+00
1.400194579569141598e-04 8.096572999999999354e+00
1.600222376650447425e-04 8.422307999999999240e+00
1.800250173731753251e-04 8.807157000000000124e+00
2.000277970813059349e-04 9.184996999999999190e+00
2.200305767894365175e-04 9.582109000000000876e+00
2.400333564975671002e-04 1.001867299999999972e+01
2.600361362056977099e-04 1.054666399999999982e+01
2.800389159138283197e-04 1.109042200000000022e+01
3.000416956219588752e-04 1.170328499999999927e+01
3.200444753300894850e-04 1.238758999999999943e+01
3.400472550382200947e-04 1.314093500000000070e+01
3.600500347463506503e-04 1.398661500000000046e+01
3.800528144544812600e-04 1.497647500000000065e+01
4.000555941626118698e-04 1.612686700000000073e+01
4.200583738707424253e-04 1.716441999999999979e+01
4.400611535788730351e-04 1.852978500000000039e+01
4.600639332870036448e-04 2.020725900000000053e+01
4.800667129951342003e-04 2.202333300000000094e+01
5.000694927032648101e-04 2.433164500000000174e+01
5.200722724113954198e-04 2.712129300000000143e+01
5.400750521195260296e-04 3.076122700000000165e+01
5.600778318276566393e-04 3.583634599999999892e+01
5.800806115357871407e-04 4.344292500000000246e+01
6.000833912439177504e-04 5.565814499999999754e+01
6.200861709520483602e-04 7.622115499999999599e+01
6.400889506601789699e-04 1.080053730000000058e+02
6.600917303683095797e-04 1.550531009999999981e+02
6.800945100764401894e-04 2.171056320000000142e+02
7.000972897845707992e-04 2.921676069999999754e+02
7.201000694927013005e-04 3.730063959999999952e+02
7.401028492008319103e-04 4.469250519999999938e+02
7.601056289089625200e-04 4.982549080000000004e+02
7.801084086170931298e-04 5.177967820000000074e+02
8.001111883252237395e-04 5.015787750000000074e+02
8.201139680333543493e-04 4.627609360000000152e+02
8.401167477414848506e-04 4.129063009999999849e+02
8.601195274496154604e-04 3.621507010000000264e+02
8.801223071577460701e-04 3.132265540000000215e+02
9.001250868658766799e-04 2.696860659999999825e+02
9.201278665740072896e-04 2.254961169999999981e+02
9.401306462821378994e-04 1.750055189999999925e+02
9.601334259902684007e-04 1.199654550000000057e+02
9.801362056983990104e-04 7.086358099999999638e+01
1.000138985406529620e-03 3.014090200000000053e+01
1.020141765114660230e-03 2.702986000000000111e+00
1.040144544822790840e-03 -9.898899999999999366e+00
1.060147324530921449e-03 -7.773895999999999695e+00
1.080150104239052059e-03 3.990031000000000105e+00
1.100152883947182669e-03 2.804159299999999888e+01
1.120155663655313279e-03 5.211437399999999798e+01
1.140158443363443888e-03 6.733343600000000606e+01
1.160161223071574281e-03 7.369592500000000257e+01
1.180164002779704891e-03 5.939047999999999661e+01
1.200166782487835501e-03 3.243461400000000339e+01
1.220169562195966111e-03 6.610380000000000145e-01
1.240172341904096720e-03 -2.613572399999999973e+01
1.260175121612227330e-03 -4.304562700000000319e+01
1.280177901320357940e-03 -3.924931399999999826e+01
1.300180681028488550e-03 -2.295460999999999885e+01
1.320183460736619159e-03 -8.347827000000000552e+00
1.340186240444749769e-03 1.312159800000000054e+01
1.360189020152880379e-03 2.921807000000000087e+01
1.380191799861010989e-03 3.314435399999999987e+01
1.400194579569141598e-03 1.949226300000000123e+01
1.420197359277271991e-03 1.886115999999999904e+00
1.440200138985402601e-03 -7.012959000000000387e+00
1.460202918693533211e-03 -1.767444599999999966e+01
1.480205698401663821e-03 -7.614662000000000042e+00
1.500208478109794430e-03 -1.273327000000000098e+00
1.520211257817925040e-03 1.325247599999999970e+01
1.540214037526055650e-03 2.717839400000000083e+01
1.560216817234186260e-03 2.936672799999999839e+01
1.580219596942316869e-03 3.158659799999999862e+01
1.600222376650447479e-03 1.762135900000000177e+01
1.620225156358578089e-03 4.987548000000000314e+00
1.640227936066708699e-03 1.041928899999999913e+01
1.660230715774839308e-03 -4.680509999999999948e+00
1.680233495482969701e-03 -2.155149000000000203e+00
1.700236275191100311e-03 -1.958030000000000048e-01
1.720239054899230921e-03 -3.197048999999999808e+00
1.740241834607361530e-03 -2.053405000000000147e+00
1.760244614315492140e-03 -1.557338599999999929e+01
1.780247394023622750e-03 -2.124559999999999960e+01
1.800250173731753360e-03 -2.836266699999999830e+01
1.820252953439883969e-03 -2.870228799999999936e+01
1.840255733148014579e-03 -1.669094499999999925e+01
1.860258512856145189e-03 -1.155612900000000032e+01
1.880261292564275799e-03 1.019750299999999932e+01
1.900264072272406408e-03 2.480525899999999950e+01
1.920266851980536801e-03 3.303813300000000197e+01
1.940269631688667411e-03 4.048658100000000104e+01
1.960272411396798021e-03 3.259644300000000072e+01
1.980275191104928847e-03 2.000545899999999833e+01
2.000277970813059240e-03 5.315230999999999817e+00
2.020280750521190067e-03 -4.167638000000000176e+00
2.040283530229320460e-03 -1.565520899999999926e+01
2.060286309937450853e-03 -1.652184799999999854e+01
2.080289089645581679e-03 -1.479745999999999917e+01
2.100291869353712072e-03 -1.039074800000000032e+01
2.120294649061842899e-03 -6.594240000000000101e+00
2.140297428769973292e-03 -2.499766999999999850e+00
2.160300208478104118e-03 -5.447799999999999865e-02
2.180302988186234511e-03 -5.160808000000000284e+00
2.200305767894365338e-03 -1.154178899999999963e+01
2.220308547602495731e-03 -1.962892499999999885e+01
2.240311327310626557e-03 -1.553575099999999942e+01
2.260314107018756950e-03 -1.028958800000000018e+01
2.280316886726887777e-03 -7.150066999999999950e+00
2.300319666435018170e-03 -2.438512999999999931e+00
2.320322446143148563e-03 8.420621000000000578e+00
2.340325225851279389e-03 1.327317599999999942e+01
2.360328005559409782e-03 1.610960700000000045e+01
2.380330785267540609e-03 1.747380400000000122e+01
2.400333564975671002e-03 1.274635299999999916e+01
2.420336344683801828e-03 6.127364000000000033e+00
2.440339124391932221e-03 7.785760999999999932e+00
2.460341904100063048e-03 -5.989499999999999824e-01
2.480344683808193441e-03 -6.158648999999999596e+00
2.500347463516324267e-03 -1.162114700000000056e+01
2.520350243224454660e-03 -1.557552699999999923e+01
2.540353022932585487e-03 -1.649589299999999881e+01
2.560355802640715880e-03 -1.694037300000000101e+01
2.580358582348846273e-03 -5.396414000000000044e+00
2.600361362056977099e-03 -4.233888000000000318e+00
2.620364141765107492e-03 -4.554886999999999908e+00
2.640366921473238319e-03 -4.666494000000000142e+00
2.660369701181368712e-03 -6.014274000000000342e+00
2.680372480889499538e-03 -9.571866999999999237e+00
2.700375260597629931e-03 -8.491034000000000859e+00
2.720378040305760758e-03 -1.005631699999999995e+01
2.740380820013891151e-03 -5.141211000000000197e+00
2.760383599722021977e-03 -1.104554000000000036e+00
2.780386379430152370e-03 1.300746099999999927e+01
2.800389159138283197e-03 2.070598499999999831e+01
2.820391938846413590e-03 1.528242000000000012e+01
2.840394718554543983e-03 1.006986900000000063e+01
2.860397498262674809e-03 7.009510999999999825e+00
2.880400277970805202e-03 9.241570000000000062e-01
2.900403057678936029e-03 -4.602774000000000143e+00
2.920405837387066422e-03 -1.024845000000000006e+01
2.940408617095197248e-03 -1.666200500000000062e+01
2.960411396803327641e-03 -1.316761299999999935e+01
2.980414176511458468e-03 -1.018622200000000078e+01
3.000416956219588861e-03 -7.688244000000000078e+00
3.020419735927719687e-03 -1.290514300000000070e+01
3.040422515635850080e-03 -1.550940600000000025e+01
3.060425295343980907e-03 -1.206342099999999995e+01
3.080428075052111300e-03 -1.352890700000000024e+01
3.100430854760241692e-03 -7.360237999999999836e+00
3.120433634468372519e-03 -2.190399999999999986e-02
3.140436414176502912e-03 6.396518000000000370e+00
3.160439193884633739e-03 1.033662200000000020e+01
3.180441973592764131e-03 1.209929400000000044e+01
3.200444753300894958e-03 1.028970900000000022e+01
3.220447533009025351e-03 3.596033999999999953e+00
3.240450312717156178e-03 1.573682000000000025e+00
3.260453092425286570e-03 -2.282652999999999821e+00
3.280455872133417397e-03 -6.425791000000000253e+00
3.300458651841547790e-03 -2.985840000000000050e+00
3.320461431549678617e-03 2.171361000000000097e+00
3.340464211257809009e-03 5.058600000000000207e+00
3.360466990965939402e-03 1.055425000000000058e+00
3.380469770674070229e-03 -2.028553000000000051e+00
3.400472550382200622e-03 -1.006124900000000011e+01
3.420475330090331448e-03 -1.816934399999999883e+01
3.440478109798461841e-03 -1.832072700000000154e+01
3.460480889506592668e-03 -1.985531800000000047e+01
3.480483669214723061e-03 -1.616801600000000150e+01
3.500486448922853887e-03 -1.245527700000000060e+01
3.520489228630984280e-03 -1.405190000000000050e-01
3.540492008339115107e-03 5.185260999999999676e+00
3.560494788047245500e-03 1.198950400000000016e+01
3.580497567755376326e-03 1.290630099999999914e+01
3.600500347463506719e-03 7.513687000000000005e+00
3.620503127171637112e-03 2.663273999999999919e+00
3.640505906879767939e-03 -2.000652000000000097e+00
3.660508686587898332e-03 -8.446789999999999576e-01
3.680511466296029158e-03 1.787550999999999890e+00
3.700514246004159551e-03 -3.257979000000000180e+00
3.720517025712290378e-03 -3.838332999999999995e+00
3.740519805420420771e-03 -1.904487999999999959e+00
3.760522585128551597e-03 -3.142544000000000004e+00
3.780525364836681990e-03 -1.699832999999999927e+00
3.800528144544812817e-03 8.434369999999999923e-01
3.820530924252943210e-03 -1.977500000000000091e-01
3.840533703961073603e-03 -5.468698999999999977e+00
3.860536483669204429e-03 -4.447758000000000322e+00
3.880539263377334822e-03 -9.910384999999999778e+00
3.900542043085465649e-03 -1.467332999999999998e+01
3.920544822793596042e-03 -1.555619000000000085e+01
3.940547602501726435e-03 -1.137989499999999943e+01
3.960550382209857695e-03 -6.853790000000000049e+00
3.980553161917988088e-03 1.570243000000000055e+00
4.000555941626118481e-03 1.188159600000000005e+01
4.020558721334248874e-03 1.356192500000000045e+01
4.040561501042380134e-03 1.164053900000000041e+01
4.060564280750510527e-03 9.545771999999999480e+00
4.080567060458640920e-03 5.102983000000000047e+00
4.100569840166771313e-03 2.982715999999999923e+00
4.120572619874901706e-03 -5.761089999999999822e-01
4.140575399583032966e-03 -2.859698999999999991e+00
4.160578179291163359e-03 -7.758712000000000053e+00
4.180580958999293752e-03 -8.541451999999999600e+00
4.200583738707424145e-03 -5.020844999999999558e+00
4.220586518415555405e-03 -5.860036000000000023e+00
4.240589298123685798e-03 -8.115140000000000242e+00
4.260592077831816191e-03 -6.238395999999999830e+00
4.280594857539946584e-03 -4.721129000000000353e+00
4.300597637248077844e-03 -3.600845000000000073e+00
4.320600416956208237e-03 -2.530459000000000014e+00
4.340603196664338630e-03 -6.812270000000000270e-01
4.360605976372469023e-03 -1.844208000000000069e+00
4.380608756080599415e-03 9.580929999999999724e-01
4.400611535788730676e-03 4.388959999999999972e+00
4.420614315496861069e-03 5.315554999999999808e+00
4.440617095204991462e-03 4.723001000000000005e+00
4.460619874913121854e-03 5.305432999999999844e+00
4.480622654621253115e-03 -1.237130000000000035e-01
4.500625434329383508e-03 -5.103252000000000344e+00
4.520628214037513901e-03 -3.441546000000000216e+00
4.540630993745644294e-03 -3.048261999999999805e+00
4.560633773453775554e-03 -3.780720000000000192e-01
4.580636553161905947e-03 3.539321999999999857e+00
4.600639332870036340e-03 2.674630000000000063e+00
4.620642112578166733e-03 1.226209000000000104e+00
4.640644892286297125e-03 9.679560000000000386e-01
4.660647671994428386e-03 -4.420505000000000351e+00
4.680650451702558779e-03 -9.292460999999999416e+00
4.700653231410689172e-03 -1.415714900000000043e+01
4.720656011118819564e-03 -1.419990999999999914e+01
4.740658790826950825e-03 -7.109576999999999813e+00
4.760661570535081218e-03 1.207651000000000030e+00
4.780664350243211611e-03 6.161234999999999573e+00
4.800667129951342003e-03 8.425292999999999921e+00
4.820669909659473264e-03 8.229786999999999964e+00
4.840672689367603657e-03 7.021449999999999747e+00
4.860675469075734050e-03 1.531959000000000071e+00
4.880678248783864442e-03 -1.935958999999999985e+00
4.900681028491994835e-03 -6.190962999999999994e+00
4.920683808200126096e-03 -9.427946000000000382e+00
4.940686587908256489e-03 -4.288394000000000261e+00
4.960689367616386881e-03 2.817049999999999832e-01
4.980692147324517274e-03 8.643309999999999604e-01
5.000694927032648535e-03 8.181310000000000526e-01
5.020697706740778928e-03 -2.231716000000000033e+00
5.040700486448909320e-03 -2.056973999999999858e+00
5.060703266157039713e-03 -3.250589999999999868e-01
5.080706045865170974e-03 1.331326999999999927e+00
5.100708825573301367e-03 7.673240000000000061e-01
5.120711605281431759e-03 -3.220343999999999873e+00
5.140714384989562152e-03 -6.703509999999999636e+00
5.160717164697692545e-03 -6.206666000000000238e+00
5.180719944405823806e-03 -5.055234999999999701e+00
5.200722724113954198e-03 -3.192311999999999816e+00
5.220725503822084591e-03 -5.657269999999999799e-01
5.240728283530214984e-03 -2.488809999999999911e-01
5.260731063238346245e-03 6.932220000000000049e-01
5.280733842946476637e-03 3.814251000000000058e+00
5.300736622654607030e-03 4.308628999999999820e+00
5.320739402362737423e-03 2.698833000000000037e+00
5.340742182070868684e-03 -3.956569999999999809e-01
5.360744961778999076e-03 -3.228908999999999807e+00
5.380747741487129469e-03 -3.411242999999999803e+00
5.400750521195259862e-03 -4.359770000000000145e+00
5.420753300903390255e-03 -3.412995000000000001e+00
5.440756080611521515e-03 -3.529598000000000013e+00
5.460758860319651908e-03 -3.852154000000000078e+00
5.480761640027782301e-03 -1.629234999999999989e+00
5.500764419735912694e-03 1.409969999999999946e+00
5.520767199444043954e-03 1.988053999999999988e+00
5.540769979152174347e-03 -7.078309999999999880e-01
5.560772758860304740e-03 -4.157191000000000081e+00
5.580775538568435133e-03 -5.042062999999999739e+00
5.600778318276566393e-03 -3.567816999999999794e+00
5.620781097984696786e-03 -2.131464999999999943e+00
5.640783877692827179e-03 -2.554350000000000231e-01
5.660786657400957572e-03 -4.515899999999999914e-01
5.680789437109087965e-03 -2.151386000000000021e+00
5.700792216817219225e-03 -1.098130000000000051e+00
5.720794996525349618e-03 -1.384349000000000052e+00
5.740797776233480011e-03 -2.190330000000000055e-01
5.760800555941610404e-03 1.179554999999999909e+00
5.780803335649741664e-03 6.210670000000000357e-01
5.800806115357872057e-03 -2.701640000000000152e-01
5.820808895066002450e-03 3.035070000000000268e-01
5.840811674774132843e-03 1.184550999999999910e+00
5.860814454482264103e-03 3.279599999999999876e-02
5.880817234190394496e-03 -2.526175999999999977e+00
5.900820013898524889e-03 -4.229930000000000412e+00
5.920822793606655282e-03 -7.755143999999999593e+00
5.940825573314785675e-03 -8.094960000000000377e+00
5.960828353022916935e-03 -4.958293000000000283e+00
5.980831132731047328e-03 -3.922881999999999980e+00
6.000833912439177721e-03 -2.453955999999999804e+00
6.020836692147308114e-03 -7.692149999999999821e-01
6.040839471855439374e-03 1.035763999999999907e+00
6.060842251563569767e-03 3.747740999999999989e+00
6.080845031271700160e-03 4.567530999999999786e+00
6.100847810979830553e-03 1.560249999999999915e+00
6.120850590687961813e-03 -1.982547999999999977e+00
6.140853370396092206e-03 -1.635075000000000056e+00
6.160856150104222599e-03 -1.591534999999999922e+00
6.180858929812352992e-03 -1.542999000000000009e+00
6.200861709520483385e-03 -1.191567999999999961e+00
6.220864489228614645e-03 -2.896230000000000082e+00
6.240867268936745038e-03 -3.856567000000000078e+00
6.260870048644875431e-03 -2.090132000000000101e+00
6.280872828353005824e-03 -1.871079999999999965e-01
6.300875608061137084e-03 -1.219600000000000017e+00
6.320878387769267477e-03 -2.608454000000000050e+00
6.340881167477397870e-03 -3.956103999999999843e+00
6.360883947185528263e-03 -4.291637999999999842e+00
6.380886726893659523e-03 -1.463707000000000091e+00
6.400889506601789916e-03 8.532349999999999657e-01
6.420892286309920309e-03 1.657516999999999907e+00
6.440895066018050702e-03 1.556810999999999945e+00
6.460897845726181095e-03 1.896940000000000015e-01
6.480900625434312355e-03 -1.459165000000000045e+00
6.500903405142442748e-03 -1.817603999999999997e+00
6.520906184850573141e-03 -1.995849999999999902e+00
6.540908964558703534e-03 -1.845569999999999933e+00
6.560911744266834794e-03 -1.950947999999999904e+00
6.580914523974965187e-03 -2.059900000000000064e-01
6.600917303683095580e-03 1.702029000000000014e+00
6.620920083391225973e-03 1.609629999999999894e+00
6.640922863099357233e-03 -7.715509999999999868e-01
6.660925642807487626e-03 -3.142414000000000041e+00
6.680928422515618019e-03 -4.825858000000000203e+00
6.700931202223748412e-03 -4.418623000000000189e+00
6.720933981931878805e-03 -1.349893999999999927e+00
6.740936761640010065e-03 1.442080000000000028e-01
6.760939541348140458e-03 -1.558319999999999983e-01
6.780942321056270851e-03 -8.587599999999999678e-01
6.800945100764401244e-03 -2.114139999999999908e+00
6.820947880472532504e-03 -3.361864000000000186e+00
6.840950660180662897e-03 -3.055074999999999985e+00
6.860953439888793290e-03 -2.204593000000000025e+00
6.880956219596923683e-03 -1.894171000000000049e+00
6.900958999305054943e-03 -1.935969999999999913e-01
6.920961779013185336e-03 2.564970000000000194e+00
6.940964558721315729e-03 2.708241000000000120e+00
6.960967338429446122e-03 9.897580000000000267e-01
6.980970118137576515e-03 -1.350478000000000067e+00
7.000972897845707775e-03 -3.751644000000000201e+00
7.020975677553838168e-03 -4.248553000000000246e+00
7.040978457261968561e-03 -2.394518999999999842e+00
7.060981236970098954e-03 -2.322700000000000042e-01
7.080984016678230214e-03 7.666749999999999954e-01
7.100986796386360607e-03 3.275799999999999823e-01
7.120989576094491000e-03 -1.371566000000000063e+00
7.140992355802621393e-03 -2.415219000000000005e+00
7.160995135510752653e-03 -2.540386999999999951e+00
7.180997915218883046e-03 -4.150117999999999974e+00
7.201000694927013439e-03 -5.098905000000000243e+00
7.221003474635143832e-03 -3.459973999999999883e+00
7.241006254343274225e-03 -1.628390999999999922e+00
7.261009034051405485e-03 3.818909999999999805e-01
7.281011813759535878e-03 2.036525000000000141e+00
7.301014593467666271e-03 1.749916999999999945e+00
7.321017373175796664e-03 4.058200000000000002e-02
7.341020152883927924e-03 -1.184690000000000021e+00
7.361022932592058317e-03 -1.282345999999999986e+00
7.381025712300188710e-03 -7.664250000000000229e-01
7.401028492008319103e-03 -1.117011999999999894e+00
7.421031271716450363e-03 -2.159755999999999787e+00
7.441034051424580756e-03 -2.676391000000000187e+00
7.461036831132711149e-03 -2.052951000000000192e+00
7.481039610840841542e-03 -1.083271000000000095e+00
7.501042390548971935e-03 -6.174429999999999641e-01
7.521045170257103195e-03 -9.938559999999999617e-01
7.541047949965233588e-03 -1.336915999999999993e+00
7.561050729673363981e-03 -1.642212999999999923e+00
7.581053509381494374e-03 -1.600813999999999959e+00
7.601056289089625634e-03 -1.752520999999999995e+00
7.621059068797756027e-03 -2.214846000000000092e+00
7.641061848505886420e-03 -3.010368000000000155e+00
7.661064628214016813e-03 -3.004916999999999838e+00
7.681067407922147205e-03 -1.299930000000000030e+00
7.701070187630278466e-03 4.610540000000000194e-01
7.721072967338408859e-03 2.641200000000000214e-01
7.741075747046539252e-03 -1.895739999999999925e-01
7.761078526754669644e-03 -2.333079999999999876e-01
7.781081306462800905e-03 -1.209346999999999950e+00
7.801084086170931298e-03 -8.656380000000000186e-01
7.821086865879062558e-03 6.163950000000000262e-01
7.841089645587192083e-03 1.055350000000000038e-01
7.861092425295323344e-03 -1.547736000000000001e+00
