# time(s), 	 	 acceleration(g)
0.000000000000000000e+00 6.180831000000000408e+00
2.000277970813059281e-05 6.434606999999999744e+00
4.000555941626118562e-05 6.685138000000000247e+00
6.000833912439177504e-05 6.918084000000000344e+00
8.001111883252237124e-05 7.200929000000000357e+00
1.000138985406529674e-04 7.463205000000000311e+00
1.200166782487835501e-04 7.800036000000000413e+00
1.400194579569141598e-04 8.121684000000000125e+00
1.600222376650447425e-04 8.465524000000000271e+00
1.800250173731753251e-04 8.846607999999999805e+00
2.000277970813059349e-04 9.222177999999999543e+00
2.200305767894365175e-04 9.653874999999999318e+00
2.400333564975671002e-04 1.012080599999999997e+01
2.600361362056977099e-04 1.064477399999999996e+01
2.800389159138283197e-04 1.119177600000000083e+01
3.000416956219588752e-04 1.181404799999999966e+01
3.200444753300894850e-04 1.248777600000000021e+01
3.400472550382200947e-04 1.323093399999999953e+01
3.600500347463506503e-04 1.408173999999999992e+01
3.800528144544812600e-04 1.508431799999999967e+01
4.000555941626118698e-04 1.609864100000000064e+01
4.200583738707424253e-04 1.735830400000000040e+01
4.400611535788730351e-04 1.879121699999999962e+01
4.600639332870036448e-04 2.028356700000000146e+01
4.800667129951342003e-04 2.233239299999999972e+01
5.000694927032648101e-04 2.455180800000000119e+01
5.200722724113954198e-04 2.739206899999999933e+01
5.400750521195260296e-04 3.099605599999999939e+01
5.600778318276566393e-04 3.629957900000000137e+01
5.800806115357871407e-04 4.394216999999999729e+01
6.000833912439177504e-04 5.663353599999999943e+01
6.200861709520483602e-04 7.766724100000000419e+01
6.400889506601789699e-04 1.097478650000000044e+02
6.600917303683095797e-04 1.567915690000000097e+02
6.800945100764401894e-04 2.179346360000000118e+02
7.000972897845707992e-04 2.912697580000000244e+02
7.201000694927013005e-04 3.700512850000000071e+02
7.401028492008319103e-04 4.419508989999999926e+02
7.601056289089625200e-04 4.918425199999999791e+02
7.801084086170931298e-04 5.101644430000000057e+02
8.001111883252237395e-04 4.941064489999999978e+02
8.201139680333543493e-04 4.554214999999999804e+02
8.401167477414848506e-04 4.056951470000000199e+02
8.601195274496154604e-04 3.554985540000000128e+02
8.801223071577460701e-04 3.062965580000000045e+02
9.001250868658766799e-04 2.626693149999999832e+02
9.201278665740072896e-04 2.188058169999999905e+02
9.401306462821378994e-04 1.695524299999999869e+02
9.601334259902684007e-04 1.160385880000000043e+02
9.801362056983990104e-04 6.907119099999999889e+01
1.000138985406529620e-03 3.013181799999999910e+01
1.020141765114660230e-03 4.247893999999999615e+00
1.040144544822790840e-03 -7.486314000000000135e+00
1.060147324530921449e-03 -4.865634000000000015e+00
1.080150104239052059e-03 6.140146999999999800e+00
1.100152883947182669e-03 2.897740200000000144e+01
1.120155663655313279e-03 5.186968300000000198e+01
1.140158443363443888e-03 6.496873700000000440e+01
1.160161223071574281e-03 7.079395700000000602e+01
1.180164002779704891e-03 5.616310099999999750e+01
1.200166782487835501e-03 2.953452700000000064e+01
1.220169562195966111e-03 -1.041287999999999991e+00
1.240172341904096720e-03 -2.616427499999999995e+01
1.260175121612227330e-03 -4.243120700000000056e+01
1.280177901320357940e-03 -3.622684900000000141e+01
1.300180681028488550e-03 -1.886467899999999887e+01
1.320183460736619159e-03 -6.026277999999999579e+00
1.340186240444749769e-03 1.533011300000000077e+01
1.360189020152880379e-03 3.132023399999999924e+01
1.380191799861010989e-03 3.160054799999999986e+01
1.400194579569141598e-03 1.751773299999999978e+01
1.420197359277271991e-03 1.361954000000000109e+00
1.440200138985402601e-03 -1.076482500000000009e+01
1.460202918693533211e-03 -1.845244800000000041e+01
1.480205698401663821e-03 -8.899955000000000283e+00
1.500208478109794430e-03 -1.525609999999999911e+00
1.520211257817925040e-03 1.262923100000000076e+01
1.540214037526055650e-03 2.776056499999999971e+01
1.560216817234186260e-03 3.230496800000000235e+01
1.580219596942316869e-03 2.981484199999999873e+01
1.600222376650447479e-03 1.837885599999999897e+01
1.620225156358578089e-03 8.186961000000000155e+00
1.640227936066708699e-03 9.558296000000000348e+00
1.660230715774839308e-03 -4.248162999999999911e+00
1.680233495482969701e-03 -4.026962000000000153e+00
1.700236275191100311e-03 -1.166392000000000095e+00
1.720239054899230921e-03 -2.753087999999999980e+00
1.740241834607361530e-03 -2.687682000000000127e+00
1.760244614315492140e-03 -1.649628200000000078e+01
1.780247394023622750e-03 -2.164381500000000003e+01
1.800250173731753360e-03 -2.730194900000000047e+01
1.820252953439883969e-03 -2.760036699999999854e+01
1.840255733148014579e-03 -1.547092800000000068e+01
1.860258512856145189e-03 -1.035084200000000010e+01
1.880261292564275799e-03 1.248180600000000062e+01
1.900264072272406408e-03 2.597044599999999903e+01
1.920266851980536801e-03 3.264277299999999826e+01
1.940269631688667411e-03 3.902725900000000081e+01
1.960272411396798021e-03 3.061484099999999842e+01
1.980275191104928847e-03 1.616709799999999930e+01
2.000277970813059240e-03 3.744432000000000205e+00
2.020280750521190067e-03 -6.351818999999999882e+00
2.040283530229320460e-03 -1.589315200000000061e+01
2.060286309937450853e-03 -1.557384000000000057e+01
2.080289089645581679e-03 -1.253424500000000030e+01
2.100291869353712072e-03 -8.821635999999999811e+00
2.120294649061842899e-03 -3.570022999999999946e+00
2.140297428769973292e-03 1.111150000000000054e-01
2.160300208478104118e-03 2.336371000000000198e+00
2.180302988186234511e-03 -4.802304000000000350e+00
2.200305767894365338e-03 -1.351742199999999983e+01
2.220308547602495731e-03 -2.193042399999999859e+01
2.240311327310626557e-03 -1.830684099999999859e+01
2.260314107018756950e-03 -1.171322200000000002e+01
2.280316886726887777e-03 -8.092169999999999419e+00
2.300319666435018170e-03 -2.396790000000000198e+00
2.320322446143148563e-03 8.866918000000000077e+00
2.340325225851279389e-03 1.580917799999999929e+01
2.360328005559409782e-03 1.803443299999999994e+01
2.380330785267540609e-03 1.928085899999999953e+01
2.400333564975671002e-03 1.309311300000000067e+01
2.420336344683801828e-03 5.238662999999999847e+00
2.440339124391932221e-03 5.837576000000000320e+00
2.460341904100063048e-03 -2.740175999999999945e+00
2.480344683808193441e-03 -7.950650000000000439e+00
2.500347463516324267e-03 -1.194843999999999973e+01
2.520350243224454660e-03 -1.600845699999999994e+01
2.540353022932585487e-03 -1.605407299999999893e+01
2.560355802640715880e-03 -1.472296900000000086e+01
2.580358582348846273e-03 -4.189375000000000071e+00
2.600361362056977099e-03 -2.962489999999999846e-01
2.620364141765107492e-03 -4.205142999999999631e+00
2.640366921473238319e-03 -5.458058000000000298e+00
2.660369701181368712e-03 -7.213851000000000013e+00
2.680372480889499538e-03 -1.081005200000000066e+01
2.700375260597629931e-03 -8.784065999999999264e+00
2.720378040305760758e-03 -1.080427700000000080e+01
2.740380820013891151e-03 -4.979122000000000270e+00
2.760383599722021977e-03 -1.147184999999999899e+00
2.780386379430152370e-03 1.376950099999999999e+01
2.800389159138283197e-03 2.206531599999999926e+01
2.820391938846413590e-03 1.489783100000000005e+01
2.840394718554543983e-03 9.165725999999999374e+00
2.860397498262674809e-03 6.263367999999999824e+00
2.880400277970805202e-03 -4.739110000000000267e-01
2.900403057678936029e-03 -5.014032000000000266e+00
2.920405837387066422e-03 -1.030542100000000083e+01
2.940408617095197248e-03 -1.653482500000000144e+01
2.960411396803327641e-03 -1.298670599999999986e+01
2.980414176511458468e-03 -8.636317000000000021e+00
3.000416956219588861e-03 -6.656985999999999848e+00
3.020419735927719687e-03 -1.217638999999999960e+01
3.040422515635850080e-03 -1.445297099999999979e+01
3.060425295343980907e-03 -1.187635000000000041e+01
3.080428075052111300e-03 -1.472816000000000081e+01
3.100430854760241692e-03 -6.908489999999999576e+00
3.120433634468372519e-03 1.878769999999999885e-01
3.140436414176502912e-03 5.873718000000000217e+00
3.160439193884633739e-03 9.907391000000000503e+00
3.180441973592764131e-03 1.112040000000000006e+01
3.200444753300894958e-03 9.678791999999999618e+00
3.220447533009025351e-03 4.062834999999999752e+00
3.240450312717156178e-03 1.435861000000000054e+00
3.260453092425286570e-03 -2.430727000000000082e+00
3.280455872133417397e-03 -6.851323999999999970e+00
3.300458651841547790e-03 -2.361946000000000101e+00
3.320461431549678617e-03 1.864184000000000063e+00
3.340464211257809009e-03 5.191295000000000215e+00
3.360466990965939402e-03 1.816880999999999968e+00
3.380469770674070229e-03 -2.617798000000000069e+00
3.400472550382200622e-03 -9.199801000000000784e+00
3.420475330090331448e-03 -1.795884799999999970e+01
3.440478109798461841e-03 -1.838697700000000168e+01
3.460480889506592668e-03 -1.935789000000000115e+01
3.480483669214723061e-03 -1.650828599999999824e+01
3.500486448922853887e-03 -1.206140899999999938e+01
3.520489228630984280e-03 -6.401600000000000346e-02
3.540492008339115107e-03 5.308288000000000117e+00
3.560494788047245500e-03 1.253092599999999912e+01
3.580497567755376326e-03 1.315780499999999975e+01
3.600500347463506719e-03 6.851899000000000406e+00
3.620503127171637112e-03 1.724935000000000107e+00
3.640505906879767939e-03 -3.187056999999999807e+00
3.660508686587898332e-03 -4.197949999999999737e-01
3.680511466296029158e-03 1.840824000000000016e+00
3.700514246004159551e-03 -4.175684000000000395e+00
3.720517025712290378e-03 -3.289902999999999800e+00
3.740519805420420771e-03 -1.384155000000000024e+00
3.760522585128551597e-03 -2.330346000000000029e+00
3.780525364836681990e-03 -6.469019999999999770e-01
3.800528144544812817e-03 9.430900000000000394e-02
3.820530924252943210e-03 -1.893140000000000100e-01
3.840533703961073603e-03 -4.797825999999999702e+00
3.860536483669204429e-03 -5.494069999999999787e+00
3.880539263377334822e-03 -9.561939000000000632e+00
3.900542043085465649e-03 -1.403846899999999920e+01
3.920544822793596042e-03 -1.577583500000000072e+01
3.940547602501726435e-03 -1.087792400000000015e+01
3.960550382209857695e-03 -6.723625000000000185e+00
3.980553161917988088e-03 1.831933999999999951e+00
4.000555941626118481e-03 1.234950100000000006e+01
4.020558721334248874e-03 1.279897700000000071e+01
4.040561501042380134e-03 1.078480099999999986e+01
4.060564280750510527e-03 8.575962000000000529e+00
4.080567060458640920e-03 3.883160999999999863e+00
4.100569840166771313e-03 2.132169000000000203e+00
4.120572619874901706e-03 -7.272969999999999713e-01
4.140575399583032966e-03 -2.180909000000000209e+00
4.160578179291163359e-03 -6.010900000000000354e+00
4.180580958999293752e-03 -6.336895000000000167e+00
4.200583738707424145e-03 -2.774760999999999811e+00
4.220586518415555405e-03 -4.305069999999999730e+00
4.240589298123685798e-03 -6.755354999999999777e+00
4.260592077831816191e-03 -7.272704000000000057e+00
4.280594857539946584e-03 -5.920965999999999951e+00
4.300597637248077844e-03 -5.529303999999999775e+00
4.320600416956208237e-03 -4.497590999999999894e+00
4.340603196664338630e-03 -3.094850999999999797e+00
4.360605976372469023e-03 -2.202452000000000076e+00
4.380608756080599415e-03 1.060875000000000012e+00
4.400611535788730676e-03 4.497193000000000218e+00
4.420614315496861069e-03 7.079718999999999873e+00
4.440617095204991462e-03 5.187206999999999901e+00
4.460619874913121854e-03 4.491546999999999734e+00
4.480622654621253115e-03 1.151327999999999907e+00
4.500625434329383508e-03 -4.195928999999999576e+00
4.520628214037513901e-03 -3.200098999999999805e+00
4.540630993745644294e-03 -2.176692000000000071e+00
4.560633773453775554e-03 3.825399999999999912e-01
4.580636553161905947e-03 3.604988000000000081e+00
4.600639332870036340e-03 3.590908000000000211e+00
4.620642112578166733e-03 2.695393999999999846e+00
4.640644892286297125e-03 -6.246450000000000058e-01
4.660647671994428386e-03 -5.342882000000000353e+00
4.680650451702558779e-03 -1.099433299999999925e+01
4.700653231410689172e-03 -1.654702400000000040e+01
4.720656011118819564e-03 -1.456029599999999924e+01
4.740658790826950825e-03 -7.028077999999999825e+00
4.760661570535081218e-03 1.447540000000000049e+00
4.780664350243211611e-03 7.855450000000000266e+00
4.800667129951342003e-03 1.013449800000000067e+01
4.820669909659473264e-03 9.153202000000000282e+00
4.840672689367603657e-03 6.681763000000000119e+00
4.860675469075734050e-03 2.264864999999999906e+00
4.880678248783864442e-03 -2.539023999999999948e+00
4.900681028491994835e-03 -6.800646999999999665e+00
4.920683808200126096e-03 -8.796006000000000213e+00
4.940686587908256489e-03 -5.694507999999999903e+00
4.960689367616386881e-03 -8.725159999999999583e-01
4.980692147324517274e-03 7.889310000000000489e-01
5.000694927032648535e-03 1.968900000000000164e-02
5.020697706740778928e-03 -6.680549999999999544e-01
5.040700486448909320e-03 -1.196824000000000110e+00
5.060703266157039713e-03 8.147560000000000358e-01
5.080706045865170974e-03 2.240076999999999874e+00
5.100708825573301367e-03 1.333922000000000052e+00
5.120711605281431759e-03 -2.463429999999999787e+00
5.140714384989562152e-03 -7.499811000000000227e+00
5.160717164697692545e-03 -7.512399000000000271e+00
5.180719944405823806e-03 -6.270839999999999748e+00
5.200722724113954198e-03 -5.835767999999999844e+00
5.220725503822084591e-03 -1.703661000000000092e+00
5.240728283530214984e-03 -2.261799999999999922e-02
5.260731063238346245e-03 1.854190999999999923e+00
5.280733842946476637e-03 5.698132000000000197e+00
5.300736622654607030e-03 5.334113000000000326e+00
5.320739402362737423e-03 3.721785999999999817e+00
5.340742182070868684e-03 -5.138169999999999682e-01
5.360744961778999076e-03 -2.166828999999999894e+00
5.380747741487129469e-03 -3.306515000000000093e+00
5.400750521195259862e-03 -4.365286000000000222e+00
5.420753300903390255e-03 -4.502781999999999840e+00
5.440756080611521515e-03 -4.905540000000000234e+00
5.460758860319651908e-03 -4.702181999999999640e+00
5.480761640027782301e-03 -1.909613999999999923e+00
5.500764419735912694e-03 8.691969999999999974e-01
5.520767199444043954e-03 1.198890999999999929e+00
5.540769979152174347e-03 -4.533420000000000227e-01
5.560772758860304740e-03 -3.021333999999999964e+00
5.580775538568435133e-03 -3.687469999999999803e+00
5.600778318276566393e-03 -1.458126000000000033e+00
5.620781097984696786e-03 -3.060470000000000135e-01
5.640783877692827179e-03 -3.115629999999999789e-01
5.660786657400957572e-03 -1.480318000000000023e+00
5.680789437109087965e-03 -3.035932999999999993e+00
5.700792216817219225e-03 -3.200941999999999954e+00
5.720794996525349618e-03 -2.780730000000000146e+00
5.740797776233480011e-03 -1.968531999999999949e+00
5.760800555941610404e-03 -1.218309999999999949e-01
5.780803335649741664e-03 4.123879999999999768e-01
5.800806115357872057e-03 1.208169999999999966e+00
5.820808895066002450e-03 2.919451000000000018e+00
5.840811674774132843e-03 3.247068000000000065e+00
5.860814454482264103e-03 1.687429999999999986e+00
5.880817234190394496e-03 -1.986440999999999901e+00
5.900820013898524889e-03 -4.686479000000000283e+00
5.920822793606655282e-03 -7.292170999999999736e+00
5.940825573314785675e-03 -9.284478999999999260e+00
5.960828353022916935e-03 -6.823941999999999730e+00
5.980831132731047328e-03 -4.918777000000000399e+00
6.000833912439177721e-03 -3.553866000000000192e+00
6.020836692147308114e-03 -6.844719999999999693e-01
6.040839471855439374e-03 1.739470000000000072e+00
6.060842251563569767e-03 4.068414999999999893e+00
6.080845031271700160e-03 4.000347999999999793e+00
6.100847810979830553e-03 1.226533000000000095e+00
6.120850590687961813e-03 -1.949065999999999965e+00
6.140853370396092206e-03 -1.221999999999999975e+00
6.160856150104222599e-03 -5.032410000000000494e-01
6.180858929812352992e-03 -8.946429999999999660e-01
6.200861709520483385e-03 -1.026040000000000063e+00
6.220864489228614645e-03 -2.346178000000000097e+00
6.240867268936745038e-03 -4.060119000000000256e+00
6.260870048644875431e-03 -2.254103000000000190e+00
6.280872828353005824e-03 -9.879599999999999493e-02
6.300875608061137084e-03 -1.373836999999999975e+00
6.320878387769267477e-03 -3.487811000000000217e+00
6.340881167477397870e-03 -4.071603999999999779e+00
6.360883947185528263e-03 -4.075108000000000175e+00
6.380886726893659523e-03 -1.724685000000000024e+00
6.400889506601789916e-03 7.276120000000000365e-01
6.420892286309920309e-03 1.106686000000000059e+00
6.440895066018050702e-03 9.872279999999999944e-01
6.460897845726181095e-03 4.940169999999999839e-01
6.480900625434312355e-03 -4.753390000000000115e-01
6.500903405142442748e-03 -1.061533000000000060e+00
6.520906184850573141e-03 -1.338408999999999960e+00
6.540908964558703534e-03 -1.992930000000000090e+00
6.560911744266834794e-03 -2.256374000000000102e+00
6.580914523974965187e-03 -3.330400000000000027e-01
6.600917303683095580e-03 1.513530999999999960e+00
6.620920083391225973e-03 9.705519999999999703e-01
6.640922863099357233e-03 -1.082621999999999973e+00
6.660925642807487626e-03 -3.108931999999999807e+00
6.680928422515618019e-03 -4.311558999999999919e+00
6.700931202223748412e-03 -3.753136000000000028e+00
6.720933981931878805e-03 -6.977740000000000054e-01
6.740936761640010065e-03 4.115449999999999942e-01
6.760939541348140458e-03 -5.448979999999999935e-01
6.780942321056270851e-03 -1.713848000000000038e+00
6.800945100764401244e-03 -2.729534000000000127e+00
6.820947880472532504e-03 -3.534335000000000004e+00
6.840950660180662897e-03 -2.985126000000000168e+00
6.860953439888793290e-03 -1.624888000000000110e+00
6.880956219596923683e-03 -1.095598999999999990e+00
6.900958999305054943e-03 3.299159999999999870e-01
6.920961779013185336e-03 2.765667000000000098e+00
6.940964558721315729e-03 2.611364000000000019e+00
6.960967338429446122e-03 -3.961900000000000144e-02
6.980970118137576515e-03 -2.594243000000000077e+00
7.000972897845707775e-03 -4.472804000000000002e+00
7.020975677553838168e-03 -4.479618000000000322e+00
7.040978457261968561e-03 -2.085135000000000183e+00
7.060981236970098954e-03 4.873339999999999894e-01
7.080984016678230214e-03 1.720717000000000052e+00
7.100986796386360607e-03 1.471419000000000032e+00
7.120989576094491000e-03 -1.927530000000000077e-01
7.140992355802621393e-03 -2.242097999999999924e+00
7.160995135510752653e-03 -3.536605999999999916e+00
7.180997915218883046e-03 -4.825338999999999601e+00
7.201000694927013439e-03 -6.004411000000000165e+00
7.221003474635143832e-03 -4.291313999999999851e+00
7.241006254343274225e-03 -1.604967000000000033e+00
7.261009034051405485e-03 3.518479999999999941e-01
7.281011813759535878e-03 1.827263000000000082e+00
7.301014593467666271e-03 2.233912999999999816e+00
7.321017373175796664e-03 5.335339999999999527e-01
7.341020152883927924e-03 -9.222200000000000397e-01
7.361022932592058317e-03 -6.601390000000000313e-01
7.381025712300188710e-03 -7.028999999999999693e-01
7.401028492008319103e-03 -1.347363000000000088e+00
7.421031271716450363e-03 -1.905591000000000035e+00
7.441034051424580756e-03 -2.657313999999999954e+00
7.461036831132711149e-03 -2.570234999999999825e+00
7.481039610840841542e-03 -1.686401000000000039e+00
7.501042390548971935e-03 -1.276570999999999900e+00
7.521045170257103195e-03 -1.197667999999999955e+00
7.541047949965233588e-03 -8.119760000000000311e-01
7.561050729673363981e-03 -7.487099999999999866e-01
7.581053509381494374e-03 -1.323225000000000096e+00
7.601056289089625634e-03 -1.744151000000000007e+00
7.621059068797756027e-03 -1.961589000000000027e+00
7.641061848505886420e-03 -2.942625000000000046e+00
7.661064628214016813e-03 -2.944442000000000004e+00
7.681067407922147205e-03 -1.482849000000000084e+00
7.701070187630278466e-03 -1.907419999999999949e-01
7.721072967338408859e-03 -1.799060000000000104e-01
7.741075747046539252e-03 -3.369340000000000113e-01
7.761078526754669644e-03 -5.365929999999999866e-01
7.781081306462800905e-03 -1.153609000000000107e+00
7.801084086170931298e-03 -8.813410000000000410e-01
7.821086865879062558e-03 4.642979999999999885e-01
7.841089645587192083e-03 5.482629999999999448e-01
7.861092425295323344e-03 -9.130059999999999842e-01
