# time(s), 	 	 acceleration(g)
0.000000000000000000e+00 6.073960999999999721e+00
2.000277970813066735e-05 6.300224000000000046e+00
4.000555941626133470e-05 6.520518000000000036e+00
6.000833912439200544e-05 6.763976000000000433e+00
8.001111883252266940e-05 7.024110000000000298e+00
1.000138985406533334e-04 7.312666000000000111e+00
1.200166782487840109e-04 7.634184000000000303e+00
1.400194579569146748e-04 7.956739999999999924e+00
1.600222376650453388e-04 8.296037000000000106e+00
1.800250173731760028e-04 8.656681999999999988e+00
2.000277970813066667e-04 9.036794000000000437e+00
2.200305767894373307e-04 9.423135000000000261e+00
2.400333564975680217e-04 9.836468999999999241e+00
2.600361362056986857e-04 1.032267200000000074e+01
2.800389159138293497e-04 1.083781399999999984e+01
3.000416956219600136e-04 1.143516900000000014e+01
3.200444753300906776e-04 1.207612899999999989e+01
3.400472550382213415e-04 1.287171599999999927e+01
3.600500347463520055e-04 1.364199699999999993e+01
3.800528144544826695e-04 1.460161899999999946e+01
4.000555941626133334e-04 1.574701499999999932e+01
4.200583738707439974e-04 1.672234100000000012e+01
4.400611535788746614e-04 1.802736000000000161e+01
4.600639332870053253e-04 1.958226200000000006e+01
4.800667129951360435e-04 2.146977700000000056e+01
5.000694927032666532e-04 2.351003800000000155e+01
5.200722724113973714e-04 2.618068200000000090e+01
5.400750521195279812e-04 2.960862900000000053e+01
5.600778318276586993e-04 3.405777700000000152e+01
5.800806115357893091e-04 4.091756399999999871e+01
6.000833912439200273e-04 5.159682999999999709e+01
6.200861709520506370e-04 6.941554899999999861e+01
6.400889506601813552e-04 9.768383199999999533e+01
6.600917303683120733e-04 1.393887149999999906e+02
6.800945100764426831e-04 1.947841029999999876e+02
7.000972897845734013e-04 2.631882860000000051e+02
7.201000694927040110e-04 3.368456400000000031e+02
7.401028492008347292e-04 4.069882269999999949e+02
7.601056289089653389e-04 4.612166110000000003e+02
7.801084086170960571e-04 4.897834419999999795e+02
8.001111883252266669e-04 4.884142489999999839e+02
8.201139680333573850e-04 4.614316489999999931e+02
8.401167477414879948e-04 4.202040789999999788e+02
8.601195274496187130e-04 3.735088210000000117e+02
8.801223071577493227e-04 3.257602420000000052e+02
9.001250868658800409e-04 2.815107279999999719e+02
9.201278665740106506e-04 2.389217510000000004e+02
9.401306462821413688e-04 1.900136310000000037e+02
9.601334259902720870e-04 1.372807760000000030e+02
9.801362056984026967e-04 8.582542899999999975e+01
1.000138985406533306e-03 4.471926400000000257e+01
1.020141765114664133e-03 1.332216599999999929e+01
1.040144544822794743e-03 -3.332729000000000052e+00
1.060147324530925353e-03 -7.497734000000000343e+00
1.080150104239055962e-03 1.357730000000000048e-01
1.100152883947186789e-03 1.902851100000000173e+01
1.120155663655317399e-03 4.072809199999999663e+01
1.140158443363448008e-03 6.005648599999999959e+01
1.160161223071578618e-03 7.024974400000000685e+01
1.180164002779709445e-03 6.243396800000000013e+01
1.200166782487840055e-03 4.788039299999999798e+01
1.220169562195970664e-03 1.623042799999999986e+01
1.240172341904101274e-03 -1.003970600000000069e+01
1.260175121612232101e-03 -2.858626900000000148e+01
1.280177901320362710e-03 -4.401446399999999670e+01
1.300180681028493320e-03 -3.775540600000000069e+01
1.320183460736624147e-03 -2.166432000000000002e+01
1.340186240444754756e-03 -7.182316000000000145e+00
1.360189020152885366e-03 1.179334899999999919e+01
1.380191799861015976e-03 2.452877300000000105e+01
1.400194579569146803e-03 2.920334100000000177e+01
1.420197359277277412e-03 1.980910899999999941e+01
1.440200138985408022e-03 4.893786000000000413e+00
1.460202918693538632e-03 7.222342000000000262e+00
1.480205698401669458e-03 7.930840000000000112e-01
1.500208478109800068e-03 8.804229999999999556e-01
1.520211257817930678e-03 1.132505500000000076e+01
1.540214037526061288e-03 1.236429500000000026e+01
1.560216817234192114e-03 1.718194000000000088e+01
1.580219596942322724e-03 2.094821100000000058e+01
1.600222376650453334e-03 1.282324500000000000e+01
1.620225156358584160e-03 2.179602000000000039e+00
1.640227936066714770e-03 -7.849819999999999576e-01
1.660230715774845380e-03 5.059118999999999922e+00
1.680233495482975990e-03 3.777070000000000149e+00
1.700236275191106816e-03 4.199294000000000082e+00
1.720239054899237426e-03 6.528044999999999654e+00
1.740241834607368036e-03 2.641200000000000214e-01
1.760244614315498645e-03 -6.774562000000000417e+00
1.780247394023629472e-03 -1.615588199999999830e+01
1.800250173731760082e-03 -2.691171500000000094e+01
1.820252953439890692e-03 -3.263240100000000155e+01
1.840255733148021301e-03 -2.722434399999999854e+01
1.860258512856152128e-03 -1.520183899999999966e+01
1.880261292564282738e-03 -2.062749000000000166e+00
1.900264072272413347e-03 2.436136300000000077e+01
1.920266851980544174e-03 3.154727600000000010e+01
1.940269631688674784e-03 4.023105300000000284e+01
1.960272411396805393e-03 4.204745199999999983e+01
1.980275191104936220e-03 2.393303999999999832e+01
2.000277970813066613e-03 1.793132699999999957e+01
2.020280750521197440e-03 -1.824870999999999910e+00
2.040283530229328266e-03 -1.385847099999999976e+01
2.060286309937458659e-03 -1.840358799999999917e+01
2.080289089645589486e-03 -2.199810199999999938e+01
2.100291869353719879e-03 -1.683213999999999899e+01
2.120294649061850705e-03 -1.173554400000000086e+01
2.140297428769981532e-03 -7.662029999999999674e+00
2.160300208478111925e-03 -5.438006999999999813e+00
2.180302988186242751e-03 -5.849914000000000058e+00
2.200305767894373578e-03 -2.728755000000000042e+00
2.220308547602503971e-03 -9.809160999999999575e+00
2.240311327310634797e-03 -8.506995999999999114e+00
2.260314107018765624e-03 -7.294247000000000369e+00
2.280316886726896017e-03 -2.252609999999999779e+00
2.300319666435026843e-03 4.387980000000000214e-01
2.320322446143157236e-03 3.587858000000000214e+00
2.340325225851288063e-03 7.852401000000000408e+00
2.360328005559418890e-03 5.327169999999999739e+00
2.380330785267549282e-03 9.784233999999999654e+00
2.400333564975680109e-03 8.206882000000000232e+00
2.420336344683810936e-03 4.287475999999999843e+00
2.440339124391941329e-03 1.047081000000000017e+01
2.460341904100072155e-03 6.763067999999999635e+00
2.480344683808202548e-03 2.708047000000000093e+00
2.500347463516333375e-03 -3.386261000000000188e+00
2.520350243224464201e-03 -9.486345000000000027e+00
2.540353022932594594e-03 -1.528723100000000024e+01
2.560355802640725421e-03 -1.613414399999999915e+01
2.580358582348856247e-03 -1.876248100000000107e+01
2.600361362056986640e-03 -1.378099500000000077e+01
2.620364141765117467e-03 -1.338167699999999982e+01
2.640366921473248293e-03 -5.003974000000000366e+00
2.660369701181378686e-03 -5.196495999999999782e+00
2.680372480889509513e-03 -2.254569999999999907e-01
2.700375260597639906e-03 -1.631895000000000095e+00
2.720378040305770732e-03 -3.955585000000000129e+00
2.740380820013901559e-03 -9.321599999999999331e-02
2.760383599722031952e-03 1.949121000000000103e+00
2.780386379430162778e-03 7.149668000000000134e+00
2.800389159138293605e-03 1.361033199999999965e+01
2.820391938846423998e-03 1.310109399999999980e+01
2.840394718554554825e-03 6.976482999999999990e+00
2.860397498262685217e-03 3.843570000000000042e-01
2.880400277970816044e-03 -5.838959999999999706e-01
2.900403057678946871e-03 -1.769652000000000003e+00
2.920405837387077264e-03 -7.300281000000000020e+00
2.940408617095208090e-03 -1.008227199999999968e+01
2.960411396803338917e-03 -1.047789200000000065e+01
2.980414176511469310e-03 -8.410833000000000226e+00
3.000416956219600136e-03 -8.628140999999999394e+00
3.020419735927730963e-03 -7.997368999999999950e+00
3.040422515635861356e-03 -1.734287000000000134e+01
3.060425295343992182e-03 -1.862816400000000172e+01
3.080428075052122575e-03 -1.160544400000000032e+01
3.100430854760253402e-03 -1.045057399999999959e+01
3.120433634468384228e-03 -3.205548999999999982e+00
3.140436414176514621e-03 4.937585000000000335e+00
3.160439193884645448e-03 1.162970199999999998e+01
3.180441973592776275e-03 1.367327300000000001e+01
3.200444753300906667e-03 1.185817199999999971e+01
3.220447533009037494e-03 8.713654000000000011e+00
3.240450312717168321e-03 9.271420000000000217e-01
3.260453092425298714e-03 -1.507506000000000013e+00
3.280455872133429540e-03 -3.864678000000000058e+00
3.300458651841559933e-03 -7.458671999999999969e+00
3.320461431549690760e-03 -3.200422999999999796e+00
3.340464211257821586e-03 3.270297999999999927e+00
3.360466990965951979e-03 1.385442999999999980e+00
3.380469770674082806e-03 -3.045730999999999966e+00
3.400472550382213632e-03 -6.974027000000000420e+00
3.420475330090344025e-03 -1.541986200000000018e+01
3.440478109798474852e-03 -1.912228299999999948e+01
3.460480889506605245e-03 -1.691370399999999918e+01
3.480483669214736071e-03 -1.549824599999999997e+01
3.500486448922866898e-03 -1.076800500000000049e+01
3.520489228630997291e-03 -2.097010000000000041e+00
3.540492008339128117e-03 7.192752999999999730e+00
3.560494788047258944e-03 8.507894999999999541e+00
3.580497567755389337e-03 9.675936999999999344e+00
3.600500347463520164e-03 8.189102000000000103e+00
3.620503127171650990e-03 1.368961000000000094e+00
3.640505906879781383e-03 -1.717299999999999938e-01
3.660508686587912210e-03 -3.398266000000000009e+00
3.680511466296042603e-03 -3.455626000000000086e+00
3.700514246004173429e-03 -8.088610000000000522e-01
3.720517025712304256e-03 -5.437300000000000466e-01
3.740519805420434649e-03 -1.610229999999999995e-01
3.760522585128565475e-03 4.934330000000000105e-01
3.780525364836696302e-03 -1.625146999999999897e+00
3.800528144544826695e-03 -5.616389999999999993e-01
3.820530924252957521e-03 -2.311204000000000036e+00
3.840533703961088348e-03 -6.069298999999999999e+00
3.860536483669218741e-03 -1.058093399999999917e+01
3.880539263377349567e-03 -1.005235899999999916e+01
3.900542043085479960e-03 -1.218716099999999969e+01
3.920544822793610787e-03 -1.270937699999999992e+01
3.940547602501741180e-03 -9.705145999999999162e+00
3.960550382209872440e-03 -5.048098000000000418e+00
3.980553161918002833e-03 2.657758999999999983e+00
4.000555941626133226e-03 6.912569000000000408e+00
4.020558721334264486e-03 1.489822099999999949e+01
4.040561501042394879e-03 1.132103200000000065e+01
4.060564280750525272e-03 8.456438999999999595e+00
4.080567060458656532e-03 6.608115999999999879e+00
4.100569840166786925e-03 -5.729300000000000503e-01
4.120572619874917318e-03 -1.201235999999999970e+00
4.140575399583047711e-03 -4.124812000000000367e+00
4.160578179291178971e-03 -7.115091999999999750e+00
4.180580958999309364e-03 -5.999025999999999748e+00
4.200583738707439757e-03 -7.641460000000000363e+00
4.220586518415571017e-03 -5.310373000000000232e+00
4.240589298123701410e-03 -6.080848999999999727e+00
4.260592077831831803e-03 -6.862030999999999992e+00
4.280594857539963063e-03 -4.438088999999999729e+00
4.300597637248093456e-03 -3.826524000000000036e+00
4.320600416956223849e-03 -1.927199000000000106e+00
4.340603196664355110e-03 4.564399999999999707e-02
4.360605976372485502e-03 1.140349999999999975e-01
4.380608756080615895e-03 2.592093000000000202e+00
4.400611535788747156e-03 2.398273000000000099e+00
4.420614315496877549e-03 3.640026999999999902e+00
4.440617095205007941e-03 2.652632999999999797e+00
4.460619874913139202e-03 2.876949000000000201e+00
4.480622654621269595e-03 1.224002999999999952e+00
4.500625434329399988e-03 -3.152861000000000136e+00
4.520628214037531248e-03 -3.736006000000000160e+00
4.540630993745661641e-03 -3.556526999999999994e+00
4.560633773453792034e-03 -1.620865000000000000e+00
4.580636553161922427e-03 2.522273999999999905e+00
4.600639332870053687e-03 2.201210000000000111e+00
4.620642112578184080e-03 2.252340999999999926e+00
4.640644892286314473e-03 -1.290715999999999974e+00
4.660647671994445733e-03 -3.726532000000000178e+00
4.680650451702576126e-03 -6.211791999999999980e+00
4.700653231410706519e-03 -1.194058799999999998e+01
4.720656011118837779e-03 -1.082445700000000066e+01
4.740658790826968172e-03 -9.343396999999999508e+00
4.760661570535098565e-03 1.335020000000000095e-01
4.780664350243229825e-03 7.576563000000000159e+00
4.800667129951360218e-03 7.065119000000000149e+00
4.820669909659490611e-03 8.850956000000000046e+00
4.840672689367621871e-03 6.813354999999999606e+00
4.860675469075752264e-03 8.684699999999999365e-02
4.880678248783882657e-03 -2.493538000000000032e+00
4.900681028492013917e-03 -8.079192000000000817e+00
4.920683808200144310e-03 -8.523671999999999471e+00
4.940686587908274703e-03 -6.326642999999999795e+00
4.960689367616405096e-03 -2.510870000000000046e-01
4.980692147324536356e-03 1.917002000000000095e+00
5.000694927032666749e-03 2.446743999999999808e+00
5.020697706740797142e-03 3.900020000000000153e-01
5.040700486448928402e-03 -1.560778999999999916e+00
5.060703266157058795e-03 -1.754598000000000102e+00
5.080706045865189188e-03 9.163700000000000179e-01
5.100708825573320448e-03 -1.243284000000000056e+00
5.120711605281450841e-03 -2.299199999999999910e+00
5.140714384989581234e-03 -3.231180000000000163e+00
5.160717164697712495e-03 -6.209585999999999828e+00
5.180719944405842887e-03 -4.617763000000000062e+00
5.200722724113973280e-03 -1.301358000000000015e+00
5.220725503822104541e-03 -1.646625000000000005e+00
5.240728283530234934e-03 -9.558320000000000149e-01
5.260731063238365326e-03 -8.979519999999999724e-01
5.280733842946496587e-03 8.616700000000000470e-01
5.300736622654626980e-03 3.241747000000000156e+00
5.320739402362757373e-03 3.022232999999999947e+00
5.340742182070887765e-03 6.257899999999999574e-02
5.360744961779019026e-03 -3.050403000000000198e+00
5.380747741487149419e-03 -1.748952999999999980e+00
5.400750521195279812e-03 -2.048992999999999842e+00
5.420753300903411072e-03 -1.964963000000000015e+00
5.440756080611541465e-03 -1.422633000000000036e+00
5.460758860319671858e-03 -2.947750999999999788e+00
5.480761640027803118e-03 -3.236501000000000072e+00
5.500764419735933511e-03 -5.443789999999999463e-01
5.520767199444063904e-03 -6.701310000000000322e-01
5.540769979152195164e-03 -3.947538999999999909e+00
5.560772758860325557e-03 -4.951740000000000030e+00
5.580775538568455950e-03 -4.744294000000000011e+00
5.600778318276587210e-03 -4.841624999999999623e+00
5.620781097984717603e-03 -7.472299999999999776e-02
5.640783877692847996e-03 1.461621000000000059e+00
5.660786657400979256e-03 2.276739000000000068e+00
5.680789437109109649e-03 2.001875000000000071e+00
5.700792216817240042e-03 6.024299999999999794e-02
5.720794996525370435e-03 1.595209999999999961e-01
5.740797776233501695e-03 2.163500000000000145e-02
5.760800555941632088e-03 -1.370009000000000032e+00
5.780803335649762481e-03 -1.823898000000000019e+00
5.800806115357893741e-03 -3.465230000000000032e+00
5.820808895066024134e-03 -2.391664000000000012e+00
5.840811674774154527e-03 -2.018431000000000086e+00
5.860814454482285787e-03 -8.825730000000000519e-01
5.880817234190416180e-03 -1.216874000000000011e+00
5.900820013898546573e-03 -3.636728000000000183e+00
5.920822793606677834e-03 -3.788823999999999970e+00
5.940825573314808226e-03 -4.514656999999999698e+00
5.960828353022938619e-03 -3.412995000000000001e+00
5.980831132731069880e-03 -1.555587999999999971e+00
6.000833912439200273e-03 -1.633518000000000026e+00
6.020836692147330665e-03 -2.444418000000000202e+00
6.040839471855461926e-03 -8.526599999999999735e-01
6.060842251563592319e-03 7.987940000000000040e-01
6.080845031271722712e-03 2.826077000000000172e+00
6.100847810979853972e-03 2.702986000000000111e+00
6.120850590687984365e-03 -8.001660000000000439e-01
6.140853370396114758e-03 -2.822582999999999842e+00
6.160856150104245151e-03 -1.757711999999999941e+00
6.180858929812376411e-03 -8.634319999999999773e-01
6.200861709520506804e-03 -7.696039999999999548e-01
6.220864489228637197e-03 -2.268896999999999942e+00
6.240867268936768457e-03 -3.920221999999999873e+00
6.260870048644898850e-03 -4.340823000000000320e+00
6.280872828353029243e-03 -1.766796999999999951e+00
6.300875608061160503e-03 -7.304770000000000429e-01
6.320878387769290896e-03 -7.949100000000000055e-01
6.340881167477421289e-03 -1.313231999999999955e+00
6.360883947185552549e-03 -3.040345999999999993e+00
6.380886726893682942e-03 -2.212250000000000050e+00
6.400889506601813335e-03 4.262739999999999863e-01
6.420892286309944595e-03 8.344169999999999643e-01
6.440895066018074988e-03 1.131992000000000109e+00
6.460897845726205381e-03 1.626360000000000028e-01
6.480900625434336641e-03 -2.309970999999999997e+00
6.500903405142467034e-03 -2.466934000000000182e+00
6.520906184850597427e-03 -1.294025999999999899e+00
6.540908964558727820e-03 -1.233160999999999952e+00
6.560911744266859080e-03 -1.349310000000000009e+00
6.580914523974989473e-03 -6.687039999999999651e-01
6.600917303683119866e-03 5.125750000000000028e-01
6.620920083391251126e-03 1.609888999999999903e+00
6.640922863099381519e-03 6.111389999999999878e-01
6.660925642807511912e-03 -2.707536999999999860e+00
6.680928422515643172e-03 -4.674085999999999963e+00
6.700931202223773565e-03 -4.959979999999999833e+00
6.720933981931903958e-03 -3.214373999999999842e+00
6.740936761640035219e-03 -8.043190000000000062e-01
6.760939541348165611e-03 9.450509999999999744e-01
6.780942321056296004e-03 6.792709999999999582e-01
6.800945100764427265e-03 -1.353332999999999897e+00
6.820947880472557658e-03 -2.372651999999999983e+00
6.840950660180688050e-03 -2.847758999999999929e+00
6.860953439888819311e-03 -2.976755999999999958e+00
6.880956219596949704e-03 -9.754279999999999617e-01
6.900958999305080097e-03 -1.595310000000000061e-01
6.920961779013210489e-03 3.471110000000000029e-01
6.940964558721341750e-03 1.752316999999999902e+00
6.960967338429472143e-03 1.402897999999999978e+00
6.980970118137602536e-03 -2.732789999999999941e-01
7.000972897845733796e-03 -2.214520999999999962e+00
7.020975677553864189e-03 -4.009376999999999747e+00
7.040978457261994582e-03 -3.802840000000000220e+00
7.060981236970125842e-03 -1.940241000000000104e+00
7.080984016678256235e-03 -8.847900000000000209e-02
7.100986796386386628e-03 1.732130000000000059e-01
7.120989576094517888e-03 -4.097370000000000179e-01
7.140992355802648281e-03 -1.200198000000000098e+00
7.160995135510778674e-03 -1.722153999999999963e+00
7.180997915218909934e-03 -2.158587999999999951e+00
7.201000694927040327e-03 -3.669106999999999896e+00
7.221003474635170720e-03 -3.487486000000000086e+00
7.241006254343301980e-03 -2.642389999999999795e+00
7.261009034051432373e-03 -1.404335000000000111e+00
7.281011813759562766e-03 4.195260000000000100e-01
7.301014593467693159e-03 1.416848000000000107e+00
7.321017373175824419e-03 7.274180000000000090e-01
7.341020152883954812e-03 -1.110524000000000067e+00
7.361022932592085205e-03 -1.660381000000000107e+00
7.381025712300216465e-03 -1.147054999999999936e+00
7.401028492008346858e-03 -4.730679999999999885e-01
7.421031271716477251e-03 1.418719999999999981e-01
7.441034051424608511e-03 -1.207530999999999910e+00
7.461036831132738904e-03 -2.113297000000000203e+00
7.481039610840869297e-03 -1.915389000000000008e+00
7.501042390549000557e-03 -2.051458999999999921e+00
7.521045170257130950e-03 -1.733573999999999948e+00
7.541047949965261343e-03 -1.757907000000000108e+00
7.561050729673392604e-03 -1.843623999999999929e+00
7.581053509381522997e-03 -1.732340999999999909e+00
7.601056289089653389e-03 -1.270211999999999897e+00
7.621059068797784650e-03 -1.614635000000000042e+00
7.641061848505915043e-03 -1.978201000000000098e+00
7.661064628214045436e-03 -1.853487000000000107e+00
7.681067407922176696e-03 -1.222520000000000051e+00
7.701070187630307089e-03 -1.843180000000000096e-01
7.721072967338437482e-03 8.632800000000000196e-02
7.741075747046567875e-03 -1.056089999999999945e-01
7.761078526754699135e-03 -2.261060000000000014e-01
7.781081306462829528e-03 -8.736840000000000162e-01
7.801084086170959921e-03 -1.545269999999999921e+00
7.821086865879090314e-03 -1.824416999999999955e+00
7.841089645587221574e-03 -1.033566999999999902e+00
7.861092425295352834e-03 -1.116233999999999948e+00
